Compound	Iteration	Normal.Mean.Est	Normal.Mean.SE	Normal.SD.Est	Normal.SD.SE	LogNormal.LogMean.Est	LogNormal.LogMean.SE	LogNormal.LogSD.Est	LogNormal.LogSD.SE	Logistic.Location.Est	Logistic.Location.SE	Logistic.Scale.Est	Logistic.Scale.SE	Gamma.Shape.Est	Gamma.Shape.SE	Gamma.Rate.Est	Gamma.Rate.SE	N
[892] myo-inositol [19.707]	1	1803.5601405851	0.00744372876352027	0.012892916416179	0.00526351108599854	7.49751784635762	4.12724956845608e-06	7.14860594808265e-06	2.91840615750455e-06	1803.56151178434	0.00829082662267983	0.00795241977553592	0.00358288669254737	1803.5601405851	0.00744372876352027	0.012892916416179	0.00526351108599854	3
[892] myo-inositol [19.707]	2	1803.05634867274	0.498911214383387	0.864139571777914	0.352783502900508	7.4972383606102	0.000276681715072628	0.000479226788031087	0.000195643516958179	1802.998528231	0.554172698353323	0.532486347622714	0.24787857831472	1803.05634867274	0.498911214383387	0.864139571777914	0.352783502900508	3
[892] myo-inositol [19.707]	3	1803.09769179774	0.192219769441469	0.332934406891799	0.135919902450177	7.49726138760603	0.000106598358935539	0.000184633773679818	7.53764224666773e-05	1803.04797458565	0.211884945952292	0.202154639047862	0.0965522133026909	1803.09769179774	0.192219769441469	0.332934406891799	0.135919902450177	3
[892] myo-inositol [19.707]	4	1803.33364804402	0.192767033480647	0.333882296012812	0.13630687656338	7.49739224054725	0.000106901803997649	0.000185159355944697	7.55909905278125e-05	1803.38348950021	0.212489415699206	0.202732520932625	0.0968258925593099	1803.33364804402	0.192767033480647	0.333882296012812	0.13630687656338	3
[892] myo-inositol [19.707]	5	1802.85870224651	0.333899097879726	0.578330202129099	0.236102316342825	7.49712880054257	0.000185205065762232	0.000320784583719321	0.000130959757910575	1802.85747110103	0.371624244752742	0.357664527982156	0.165472105532888	1802.85870224651	0.333899097879726	0.578330202129099	0.236102316342825	3
[892] myo-inositol [19.707]	6	1803.103103532	0.190202275923245	0.329440005614296	0.134493319102442	7.49726438931143	0.00010547926796149	0.000182695451254473	7.45851056501627e-05	1803.05379374054	0.209651927303281	0.200014669100817	0.0955446745362162	1803.103103532	0.190202275923245	0.329440005614296	0.134493319102442	3
[892] myo-inositol [19.707]	7	1803.76397788687	0.212307232879601	0.367726914161826	0.150123884064117	7.49763083862745	0.000117694145283764	0.000203852239384872	8.32223282361042e-05	1803.71090717917	0.234169982500221	0.223555796432291	0.106540470449936	1803.76397788687	0.212307232879601	0.367726914161826	0.150123884064117	3
[892] myo-inositol [19.707]	8	1803.56024676397	0.320614928833705	0.555321346405057	0.226708990327955	7.49751785785253	0.000177768871260358	0.000307904717027111	0.000125701574352078	1803.56471455878	0.356831020864226	0.343420336566965	0.158895920959527	1803.56024676397	0.320614928833705	0.555321346405057	0.226708990327955	3
[892] myo-inositol [19.707]	9	1802.22770855335	2.13054649115403	3.69021477056638	1.50652387152822	7.49677669750965	0.00118247826231076	0.002048112429168	0.000836138397885627	1802.4181552105	2.36844117630962	2.27727781369195	1.05744915101534	1802.22770855335	2.13054649115403	3.69021477056638	1.50652387152822	3
[892] myo-inositol [19.707]	10	1804.48108208759	1.08776518125926	1.88406456064541	0.769166136007038	7.49802779544424	0.000602619062753648	0.00104376683429886	0.000426116025745386	1804.2359767207	1.20173867821905	1.14912492084226	0.544517217505503	1804.48108208759	1.08776518125926	1.88406456064541	0.769166136007038	3
[892] myo-inositol [19.707]	11	1803.55869889541	0.0102169045811743	0.0176961978306772	0.00722444251208428	7.49751704697702	5.6648393882153e-06	9.81178963710629e-06	4.00564634573969e-06					1803.55869889541	0.0102169045811743	0.0176961978306772	0.00722444251208428	3
[892] myo-inositol [19.707]	12	1803.55697994892	0.00595229836824785	0.0103096831956146	0.00420891053983367	7.49751609392239	3.30031718418044e-06	5.71631704409318e-06	2.33367666100048e-06					1803.55697994892	0.00595229836824785	0.0103096831956146	0.00420891053983367	3
[892] myo-inositol [19.707]	13	1801.71129691233	1.74743476727162	3.02664579982674	1.2356229736189	7.49649080068527	0.000970426999462288	0.0016808288681053	0.000686195511966298	1802.14346326457	1.92772875322352	1.84070281774712	0.876706084559726	1801.71129691233	1.74743476727162	3.02664579982674	1.2356229736189	3
[892] myo-inositol [19.707]	14	1804.03633948493	0.965854467101125	1.67290900973651	0.682962243326525	7.49778141448994	0.000535209966174205	0.000927010854130943	0.000378450596440403	1803.78587275733	1.06460361344264	1.01566129699765	0.485208260454366	1804.03633948493	0.965854467101125	1.67290900973651	0.682962243326525	3
[892] myo-inositol [19.707]	15	1803.60138938717	2.18454205736214	3.78373783462227	1.54470450254798	7.49753851719861	0.00121085627179823	0.00209726458341797	0.000856204680830791	1803.38056302514	2.42766218107313	2.33358272845567	1.08470642751034	1803.60138938717	2.18454205736214	3.78373783462227	1.54470450254798	3
[892] myo-inositol [19.707]	16	1803.08919674483	0.19127193253145	0.331292705206358	0.135249680543644	7.49725667639659	0.000106073252297676	0.000183724262303647	7.50051160021982e-05	1803.03970379621	0.210837785344359	0.201151903736139	0.0960751494864347	1803.08919674483	0.19127193253145	0.331292705206358	0.135249680543644	3
[892] myo-inositol [19.707]	17	1804.00650505732	0.348736312166843	0.604029011117172	0.246593811179163	7.49776525047815	0.000193289254996714	0.000334786810211445	0.000136676142938672	1803.91612624818	0.384396814460922	0.3667298310647	0.175186497741982	1804.00650505732	0.348736312166843	0.604029011117172	0.246593811179163	3
[892] myo-inositol [19.707]	18	1803.09005630299	0.195524073601019	0.338657629579802	0.138256398328498	7.49725715235193	0.00010843113060022	0.000187808227321718	7.66723877391398e-05	1803.0393534364	0.215517078003163	0.205610001697427	0.0982199341213557	1803.09005630299	0.195524073601019	0.338657629579802	0.138256398328498	3
[892] myo-inositol [19.707]	19	1803.32015061638	0.191568579487673	0.331806512806447	0.135459441618008	7.49738475602243	0.000106237953377997	0.000184009532942825	7.51215772529621e-05	1803.36982200034	0.211155096775741	0.201449810862026	0.0962299610812344	1803.32015061638	0.191568579487673	0.331806512806447	0.135459441618008	3
[892] myo-inositol [19.707]	20	1805.22139848292	1.36157386476167	2.35831511202513	0.962778112859354	7.49843766888718	0.000753894315462501	0.00130578325791841	0.000533083782761525	1804.86830854057	1.50078022903822	1.43178489591499	0.684002516319845	1805.22139848292	1.36157386476167	2.35831511202513	0.962778112859354	3
[892] myo-inositol [19.707]	21	1803.09616163138	0.508680425439604	0.881060341677146	0.359691378285202	7.49726043665095	0.000282088408648304	0.000488591456005114	0.000199466626649338	1803.02545377535	0.564533631263768	0.542043542229522	0.253019841333619	1803.09616163138	0.508680425439604	0.881060341677146	0.359691378285202	3
[892] myo-inositol [19.707]	22	1804.99343697714	0.895769225463355	1.55151781035915	0.63340449370336	7.4983118654324	0.000496146000714435	0.000859350081209506	0.000350828201563763	1804.79927310037	0.990157326619336	0.947294666212828	0.448051458671726	1804.99343697714	0.895769225463355	1.55151781035915	0.63340449370336	3
[892] myo-inositol [19.707]	23	1803.31424117803	0.195414933069488	0.338468592634025	0.13817922431855	7.49738147835346	0.000108371503453205	0.000187704950073577	7.66302249791425e-05	1803.36479825287	0.215405810202224	0.20551287430421	0.0981580817851078	1803.31424117803	0.195414933069488	0.338468592634025	0.13817922431855	3
[892] myo-inositol [19.707]	24	1802.85215360507	0.676286551276277	1.17136266728605	0.478206806432719	7.49712500854886	0.000375120747034232	0.000649728192836481	0.000265250423991669	1802.85274235582	0.75269794911131	0.724425102770268	0.335157126712787	1802.85215360507	0.676286551276277	1.17136266728605	0.478206806432719	3
[892] myo-inositol [19.707]	25	1804.2864254144	0.889475936702789	1.54061751447915	0.628954466544798	7.49792009600308	0.000492853766766902	0.000853647764741976	0.00034850024061421	1804.09297305383	0.983156645076775	0.940556153879369	0.444933173687664	1804.2864254144	0.889475936702789	1.54061751447915	0.628954466544798	3
[892] myo-inositol [19.707]	26	1803.55045104838	0.0184302405653761	0.0319221130549484	0.0130321480826768	7.49751247376208	1.02189240102454e-05	1.76996955844305e-05	7.22587046407453e-06	1803.55474237634	0.0203788789588391	0.0194861717295282	0.00919138402462482	1803.55045104838	0.0184302405653761	0.0319221130549484	0.0130321480826768	3
[892] myo-inositol [19.707]	27	1805.66188307835	1.34286432777995	2.3259092433867	0.949548472386718	7.49868166819301	0.000743668011559954	0.00128807077998556	0.000525852693925559	1805.63267160324	1.49448458183435	1.43826770645838	0.665564416471644	1805.66188307835	1.34286432777995	2.3259092433867	0.949548472386718	3
[892] myo-inositol [19.707]	28	1804.98859134404	2.10667299657186	3.64886466499583	1.48964276161854	7.49830750829895	0.00116651448441826	0.00202046235477745	0.000824850302284484	1804.58244527361	2.33192315581314	2.23389264181705	1.05160007372161	1804.98859134404	2.10667299657186	3.64886466499583	1.48964276161854	3
[892] myo-inositol [19.707]	29	1802.83532001629	0.34761918161128	0.60209408423625	0.245803880587854	7.49711582661124	0.000192818951056608	0.000333972219892182	0.000136343587833405	1802.83877181228	0.386890916433564	0.372354641195085	0.17227643162597	1802.83532001629	0.34761918161128	0.60209408423625	0.245803880587854	3
[892] myo-inositol [19.707]	30	1802.86162876128	0.338358433543062	0.586053998066	0.239255542829957	7.49713042242119	0.000187678991419967	0.000325069548652667	0.000132709087519311	1802.86338344928	0.376586723805685	0.362440042759138	0.167682644444493	1802.86162876128	0.338358433543062	0.586053998066	0.239255542829957	3
[892] myo-inositol [19.707]	31	1802.3637440368	0.205783506877002	0.356427489270666	0.145510913169076	7.49685425398262	0.000114166329510025	0.000197741883225013	8.07277857797163e-05	1802.31088825755	0.226865053971154	0.216475295888799	0.103345024524216	1802.3637440368	0.205783506877002	0.356427489270666	0.145510913169076	3
[892] myo-inositol [19.707]	32	1804.9215176169	1.10822089683657	1.91949489933049	0.783630511205777	7.49827182406697	0.000613768982629493	0.00106307906202414	0.000434000209699283	1804.63413145493	1.22152522730263	1.16536861865991	0.556727673805546	1804.9215176169	1.10822089683657	1.91949489933049	0.783630511205777	3
[892] myo-inositol [19.707]	33	1803.32772712045	0.197850157927674	0.342686525816257	0.139901188329487	7.49738895630459	0.000109721266782544	0.000190042808738185	7.75846517823149e-05	1803.37882388148	0.218097129599906	0.208087563800579	0.0993761875207815	1803.32772712045	0.197850157927674	0.342686525816257	0.139901188329487	3
[892] myo-inositol [19.707]	34	1804.2203015695	0.63881081848083	1.10645279403346	0.451707461643124	7.49788362350628	0.00035407083911931	0.000613268682833191	0.000250365891361675	1804.23294811986	0.710946590044585	0.684210140121884	0.316607915044038	1804.2203015695	0.63881081848083	1.10645279403346	0.451707461643124	3
[892] myo-inositol [19.707]	35	1803.35607370533	1.83649504547498	3.18090272661118	1.29859810027086	7.49740313746998	0.00101846237555539	0.00176402858005924	0.000720161652138579	1803.41778053634	2.0436451089467	1.96661538542966	0.910328881507669	1803.35607370533	1.83649504547498	3.18090272661118	1.29859810027086	3
[892] myo-inositol [19.707]	36	1803.77963030732	0.761150054711573	1.31835056694427	0.538214365187065	7.49763927000943	0.000421866153808702	0.000730693612390338	0.00029830441811122	1803.5822465912	0.838970216538677	0.800400672042232	0.382372086639105	1803.77963030732	0.761150054711573	1.31835056694427	0.538214365187065	3
[892] myo-inositol [19.707]	37	1802.61700675112	0.50974780957685	0.882909105234049	0.360446132846779	7.49699466068199	0.000282807911380205	0.000489837671292951	0.000199975391910147	1802.68532160601	0.56583142536325	0.543382388199311	0.253483788596893	1802.61700675112	0.50974780957685	0.882909105234049	0.360446132846779	3
[892] myo-inositol [19.707]	38	1804.20815010437	0.841251778296093	1.4570908219665	0.59485483711841	7.49787675049677	0.000466161100967515	0.000807414711387981	0.000329625675619517	1804.02759382491	0.930017018614873	0.889867368159066	0.420702012019667	1804.20815010437	0.841251778296093	1.4570908219665	0.59485483711841	3
[892] myo-inositol [19.707]	39	1801.66680319187	0.508353569934475	0.88049421133553	0.359460256541057	7.49646739777886	0.000282129600614236	0.000488662802582973	0.000199495753767779	1801.5929086074	0.564021221270662	0.54142825336901	0.252946368743474	1801.66680319187	0.508353569934475	0.88049421133553	0.359460256541057	3
[892] myo-inositol [19.707]	40	1801.52434084887	1.66250328079628	2.87954015008911	1.17556734359593	7.49638716313952	0.000923354055026321	0.00159929613668034	0.000652909913745208	1801.95541946398	1.83248026566803	1.74823951103898	0.835175330429172	1801.52434084887	1.66250328079628	2.87954015008911	1.17556734359593	3
[892] myo-inositol [19.707]	41	1803.79128811103	0.197261836347386	0.34166752294801	0.139485182150548	7.49764598204008	0.000109352247393399	0.000189403648407208	7.73237156698613e-05	1803.74014063348	0.217432875083845	0.207438427373589	0.0990926617861133	1803.79128811103	0.197261836347386	0.34166752294801	0.139485182150548	3
[892] myo-inositol [19.707]	42	1803.09383550057	0.197841850184445	0.342672136382889	0.139895313867914	7.4972592478853	0.000109716177102783	0.000190033993154246	7.75810528352422e-05	1803.04254019596	0.218072481870704	0.20804858604524	0.099383863625001	1803.09383550057	0.197841850184445	0.342672136382889	0.139895313867914	3
[892] myo-inositol [19.707]	43	1802.85089382791	0.00440981431083522	0.00763802243831093	0.00311820960296506	7.49712452084388	2.44601926017629e-06	4.23662963491738e-06	1.72959680578356e-06					1802.85089382791	0.00440981431083522	0.00763802243831093	0.00311820960296506	3
[892] myo-inositol [19.707]	44	1803.79993067824	0.772042774550013	1.33721731113707	0.545916681250391	7.49765051660889	0.000427897030214824	0.000741139396739911	0.000302568891714487	1803.59971931014	0.850976360047827	0.811854631427606	0.387844358927564	1803.79993067824	0.772042774550013	1.33721731113707	0.545916681250391	3
[892] myo-inositol [19.707]	45	1802.84414841412	0.353497238298081	0.612275177067559	0.24996029433129	7.49712072164946	0.00019607912686123	0.000339619010027393	0.000138648880252713	1802.85014289452	0.393420913441122	0.378630292283783	0.175194441327128	1802.84414841412	0.353497238298081	0.612275177067559	0.24996029433129	3
[892] myo-inositol [19.707]	46	1803.09385808914	0.192423617935908	0.333287482841214	0.13606404510293	7.49725926138844	0.000106711608618414	0.000184829927884498	7.54565020854053e-05	1803.04395746128	0.212097205345315	0.202346454570496	0.0966592715228515	1803.09385808914	0.192423617935908	0.333287482841214	0.13606404510293	3
[892] myo-inositol [19.707]	47	1803.74985238554	0.481345410334073	0.833714706688704	0.340362603740244	7.49762292144265	0.000266835599606194	0.000462172815786033	0.000188681261943518	1803.68632354685	0.534346801691227	0.51318170292243	0.239334790143906	1803.74985238554	0.481345410334073	0.833714706688704	0.340362603740244	3
[892] myo-inositol [19.707]	48	1803.99872879883	0.6616746607756	1.14605413054424	0.467874639573735	7.49776079421521	0.000366722704980822	0.000635182357315877	0.000259312111507013	1803.87614344309	0.732723738995394	0.702182004359559	0.330100321288103	1803.99872879883	0.6616746607756	1.14605413054424	0.467874639573735	3
[892] myo-inositol [19.707]	49	1805.1528786408	1.02695134756467	1.77873191088332	0.726164261811638	7.49840007921713	0.000568724533207725	0.000985059787026673	0.000402148974058336	1804.91815442579	1.13431792888869	1.08443861208946	0.514234120948658	1805.1528786408	1.02695134756467	1.77873191088332	0.726164261811638	3
[892] myo-inositol [19.707]	50	1803.08793274671	0.692625558214538	1.19966265744834	0.489760229036618	7.49725577086659	0.000384201291012973	0.000665456156368026	0.0002716713382159	1803.22199702258	0.766650783929669	0.734392327391131	0.345761488841981	1803.08793274671	0.692625558214538	1.19966265744834	0.489760229036618	3
[892] myo-inositol [19.707]	51	1802.84846681994	0.348127803859702	0.602975043812376	0.246163530828775	7.49712311871547	0.000193099219058884	0.00033445765831186	0.000136541767238364	1802.85018670012	0.387460118332934	0.372905150172437	0.172524439978424	1802.84846681994	0.348127803859702	0.602975043812376	0.246163530828775	3
[892] myo-inositol [19.707]	52	1803.09196396312	0.193991871406074	0.336003777530688	0.137172967766303	7.49725821062165	0.000107581371341477	0.000186336401111372	7.60715172049062e-05	1803.04171240995	0.213832152105085	0.204005227177869	0.0974457671672767	1803.09196396312	0.193991871406074	0.336003777530688	0.137172967766303	3
[892] myo-inositol [19.707]	53	1803.53912365356	0.0192107694141245	0.0332740286777538	0.0135840653245385	7.49750619312001	1.06517677424531e-05	1.8449402920352e-05	7.53193720231271e-06	1803.5434732092	0.0212484751266348	0.020325249311029	0.00957833380015484	1803.53912365356	0.0192107694141245	0.0332740286777538	0.0135840653245385	3
[892] myo-inositol [19.707]	54	1803.29011437546	0.175577366512409	0.304108919458634	0.1241519464838	7.49736810251384	9.73705432753443e-05	0.00016865072811348	6.88513714378141e-05	1803.33336382737	0.193707532267726	0.184974549315503	0.0880728425529587	1803.29011437546	0.175577366512409	0.304108919458634	0.1241519464838	3
[892] myo-inositol [19.707]	55	1803.73961461561	0.188172540232255	0.325924400271565	0.133058079231326	7.49761733608484	0.000104317278409144	0.000180682826311944	7.37634549580304e-05	1803.69373388701	0.207635017357525	0.198307283385381	0.0943621092886043	1803.73961461561	0.188172540232255	0.325924400271565	0.133058079231326	3
[892] myo-inositol [19.707]	56	1803.05158144198	0.810040459598939	1.40303123221181	0.572785102017877	7.49723552874947	0.000449224340188027	0.000778079381202267	0.000317649577221006	1802.99072453567	0.900803916300735	0.866378752484352	0.40186711134453	1803.05158144198	0.810040459598939	1.40303123221181	0.572785102017877	3
[892] myo-inositol [19.707]	57	1801.28476462696	1.57301922177888	2.72454921340348	1.11229255865663	7.49625430271008	0.000873722135756907	0.00151333113082855	0.000617814847066502	1801.67239188335	1.73541186754167	1.65715584784286	0.789101876611381	1801.28476462696	1.57301922177888	2.72454921340348	1.11229255865663	3
[892] myo-inositol [19.707]	58	1802.6016344756	0.211095502329602	0.365628135284145	0.149267061175242	7.49698623228148	0.000117114388359519	0.00020284807093604	8.2812378183531e-05	1802.65616160513	0.232694009915006	0.222012971346676	0.106026432660405	1802.6016344756	0.211095502329602	0.365628135284145	0.149267061175242	3
[892] myo-inositol [19.707]	59	1804.69016123676	1.21392747442232	2.10258406240323	0.858376349032682	7.49814352185927	0.000672397693796114	0.00116462696854701	0.000475456968937428	1804.40252829542	1.34010959736071	1.28049492331171	0.60836835327899	1804.69016123676	1.21392747442232	2.10258406240323	0.858376349032682	3
[892] myo-inositol [19.707]	60	1802.61365743537	0.51822221477583	0.897587205602608	0.366438442229501	7.49699279862813	0.000287510431593574	0.000497982675226127	0.000203300575841687	1802.68298077276	0.575243739072964	0.552425806785121	0.257694645610132	1802.61365743537	0.51822221477583	0.897587205602608	0.366438442229501	3
[892] myo-inositol [19.707]	61	1803.05909454564	0.695769476315631	1.20510808333426	0.491983314845396	7.4972397749376	0.000385944091376454	0.000668474775145023	0.000272903684171171	1803.17848569791	0.771023840706319	0.739353658071427	0.346770349293884	1803.05909454564	0.695769476315631	1.20510808333426	0.491983314845396	3
[892] myo-inositol [19.707]	62	1803.3577063126	1.70687374466835	2.95639204787093	1.20694199948427	7.49740425416323	0.000946839112068879	0.0016399734486967	0.000669516356836554	1803.62780156664	1.89270041113131	1.81598196813239	0.849961579391809	1803.3577063126	1.70687374466835	2.95639204787093	1.20694199948427	3
[892] myo-inositol [19.707]	63	1801.05995022324	1.47290122235646	2.55113975165169	1.04149844234621	7.49612962794968	0.00081820724325595	0.00141717651644017	0.000578559890122233	1801.44189634283	1.62349120350509	1.54885528485516	0.739928901326464	1801.05995022324	1.47290122235646	2.55113975165169	1.04149844234621	3
[892] myo-inositol [19.707]	64	1803.7752947024	0.203862878248375	0.353100862903414	0.144152823641634	7.49763711422811	0.000113012846175927	0.000195743991484672	7.99121498921902e-05	1803.72637886455	0.225008012312921	0.214956758625043	0.102191826691608	1803.7752947024	0.203862878248375	0.353100862903414	0.144152823641634	3
[892] myo-inositol [19.707]	65	1802.85595084578	0.336577925364561	0.582970067437545	0.237996533422981	7.49712727358009	0.000186691387892386	0.000323358969165162	0.000132010746367834	1802.85536351541	0.374607786261981	0.36053719740587	0.166801479690788	1802.85595084578	0.336577925364561	0.582970067437545	0.237996533422981	3
[892] myo-inositol [19.707]	66	1802.60872455333	0.204742282000725	0.354624034882851	0.144774655998321	7.49699016674079	0.000113589002149068	0.000196741922903236	8.03195536878193e-05	1802.66181695077	0.225677726198354	0.215303582463106	0.102850962813863	1802.60872455333	0.204742282000725	0.354624034882851	0.144774655998321	3
[892] myo-inositol [19.707]	67	1804.95614280162	1.47783654547798	2.55968798204994	1.04498824279278	7.49829056792973	0.000818374260437465	0.00141746579868429	0.000578677989103857	1804.59059291199	1.63029877138198	1.55668171462341	0.741427392180087	1804.95614280162	1.47783654547798	2.55968798204994	1.04498824279278	3
[892] myo-inositol [19.707]	68	1803.79529191636	0.19264917958135	0.333678167071358	0.136223541271997	7.49764820252781	0.000106795190155603	0.000184974695353484	7.55156031571336e-05	1803.74566188913	0.212372952429948	0.202634453990633	0.0967549554333888	1803.79529191636	0.19264917958135	0.333678167071358	0.136223541271997	3
[892] myo-inositol [19.707]	69	1805.2334474756	1.94636571643417	3.37120431097419	1.37628839675962	7.49844345400947	0.00107746952798231	0.00186623196607262	0.000761886009758161	1804.72870527325	2.1453607257241	2.04673238192692	0.977780636238493	1805.2334474756	1.94636571643417	3.37120431097419	1.37628839675962	3
[892] myo-inositol [19.707]	70	1803.80099031278	0.381178474789794	0.660220485087535	0.269533884366209	7.49765131175068	0.000211346935861454	0.000366063630936039	0.000149444851530632	1803.89980760862	0.420153769870931	0.400840932137064	0.191485938199794	1803.80099031278	0.381178474789794	0.660220485087535	0.269533884366209	3
[892] myo-inositol [19.707]	71	1803.29411187088	0.183582486505147	0.317974194006742	0.129812421114877	7.49737031796398	0.00010180981672056	0.000176339775269284	7.19904117944672e-05	1803.33783975288	0.20264886748677	0.193619591694056	0.0920093092444709	1803.29411187088	0.183582486505147	0.317974194006742	0.129812421114877	3
[892] myo-inositol [19.707]	72	1803.79465099496	0.189683660419492	0.328541737212201	0.134126602562909	7.49764784773213	0.000105151357575141	0.000182127493804987	7.43532379923539e-05	1803.74549593353	0.209082555643988	0.199473685409863	0.0952841304618685	1803.79465099496	0.189683660419492	0.328541737212201	0.134126602562909	3
[892] myo-inositol [19.707]	73	1803.09679132216	0.384774970161072	0.666449797799775	0.272076990631745	7.49726083692753	0.000213424636841515	0.000369662314596441	0.000150914007982912	1803.19657513136	0.424113802938184	0.404616501521247	0.193293074648007	1803.09679132216	0.384774970161072	0.666449797799775	0.272076990631745	3
[892] myo-inositol [19.707]	74	1803.09614562515	0.702854867655128	1.21738034112578	0.496993443108915	7.49726031916709	0.000389873481245021	0.000675280678040129	0.000275682182393161	1803.22963100191	0.778129745936673	0.745524972038352	0.350768568646307	1803.09614562515	0.702854867655128	1.21738034112578	0.496993443108915	3
[892] myo-inositol [19.707]	75	1804.51617166372	1.08684696881818	1.88247417004532	0.768516861763382	7.49804724200115	0.000602093234491804	0.00104285607303329	0.000425744209015697	1804.26391947979	1.20020041939147	1.14716798415865	0.544413591647139	1804.51617166372	1.08684696881818	1.88247417004532	0.768516861763382	3
[892] myo-inositol [19.707]	76	1804.02361806448	0.683278980186791	1.18347390942737	0.483151200332308	7.49777457745929	0.000378687497086278	0.000655905985144524	0.000267772497140268	1803.89327989188	0.756422686205166	0.724697265862626	0.341020889765747	1804.02361806448	0.683278980186791	1.18347390942737	0.483151200332308	3
[892] myo-inositol [19.707]	77	1804.26290026266	0.895538380475379	1.5511179751113	0.633241261646959	7.49790705245046	0.000496213236713444	0.000859466537375887	0.000350875744594602	1804.05970744609	0.989272111363	0.945869120197824	0.44835829002592	1804.26290026266	0.895538380475379	1.5511179751113	0.633241261646959	3
[892] myo-inositol [19.707]	78	1804.91394334029	1.11131305997245	1.92485068298712	0.78581700072769	7.49826762443809	0.000615483461550491	0.00106604862662382	0.000435212529370522	1804.62575524	1.22493350244391	1.16862018589431	0.558281031953767	1804.91394334029	1.11131305997245	1.92485068298712	0.78581700072769	3
[892] myo-inositol [19.707]	79	1803.08880783832	0.189094645465155	0.327521533384872	0.133710106094477	7.49725646108961	0.000104865894836802	0.000181633057838517	7.41513853542984e-05	1803.03984279923	0.208435956843356	0.198859910705873	0.0949858624485024	1803.08880783832	0.189094645465155	0.327521533384872	0.133710106094477	3
[892] myo-inositol [19.707]	80	1803.33003499753	0.186619485288555	0.32323443020213	0.131959903549081	7.49739023808365	0.000103492586764078	0.000179254418482113	7.31803099034167e-05	1803.37832251765	0.205710583175545	0.196262604045856	0.09374034988274	1803.33003499753	0.186619485288555	0.32323443020213	0.131959903549081	3
[892] myo-inositol [19.707]	81	1803.33066711278	0.840699312747164	1.45613392356632	0.59446418498239	7.49739027862961	0.000466238438009566	0.000807548663074121	0.000329680361166388	1803.40390555481	0.934627209639373	0.898696833730856	0.417230058503302	1803.33066711278	0.840699312747164	1.45613392356632	0.59446418498239	3
[892] myo-inositol [19.707]	82	1803.33577861771	0.187858617786499	0.325380670645878	0.132836102541165	7.49739342287239	0.00010417948693034	0.000180444164469806	7.36660216689786e-05	1803.38445666781	0.207070910249388	0.197555026935455	0.0943667926756514	1803.33577861771	0.187858617786499	0.325380670645878	0.132836102541165	3
[892] myo-inositol [19.707]	83	1801.46374172469	0.869238194380069	1.50556471654571	0.614644221712497	7.49635445392148	0.000482636949140472	0.000835951717521334	0.000341275859588415	1801.65045691443	0.960945743703192	0.91945166737334	0.434704251541802	1801.46374172469	0.869238194380069	1.50556471654571	0.614644221712497	3
[892] myo-inositol [19.707]	84	1802.83552713451	0.346744381640892	0.600578886241077	0.245185303596611	7.49711594177616	0.000192334029947363	0.000333132311893306	0.000136000696828717	1802.84029128809	0.385912124345877	0.371408645931499	0.171845819467308	1802.83552713451	0.346744381640892	0.600578886241077	0.245185303596611	3
[892] myo-inositol [19.707]	85	1802.37723730421	0.515835184645991	0.89345274813853	0.364750557037795	7.49686163708712	0.000286170342879882	0.000495661573487362	0.000202352990024844	1802.30701064366	0.572540188602606	0.549785433921567	0.256539462420373	1802.37723730421	0.515835184645991	0.89345274813853	0.364750557037795	3
[892] myo-inositol [19.707]	86	1804.25054049149	0.570443786093864	0.988037620376525	0.4033646694327	7.49790042161475	0.000316105459651919	0.000547510716667038	0.000223520314089963	1804.10263682056	0.628768500533952	0.599864543580224	0.286566638328536	1804.25054049149	0.570443786093864	0.988037620376525	0.4033646694327	3
[892] myo-inositol [19.707]	87	1803.08713209271	0.186655442898742	0.323296710609892	0.131985329419079	7.49725553213699	0.000103513363944259	0.000179290405613825	7.31950015884167e-05	1803.03873435256	0.205742268912573	0.196285008648793	0.0937641771644615	1803.08713209271	0.186655442898742	0.323296710609892	0.131985329419079	3
[892] myo-inositol [19.707]	88	1804.76543903752	1.27400757667471	2.2066458520283	0.900859396749729	7.49818516457656	0.000705632843120113	0.00122219193577331	0.000498957768398175	1804.46266193745	1.40637507418305	1.34375601798225	0.63853614314642	1804.76543903752	1.27400757667471	2.2066458520283	0.900859396749729	3
[892] myo-inositol [19.707]	89	1803.7530130277	0.481190549307426	0.833446479522439	0.340253100458161	7.4976246737717	0.000266750082044994	0.000462024695025096	0.000188620791896083	1803.69175290313	0.534270233011731	0.51318576938885	0.23920179279273	1803.7530130277	0.481190549307426	0.833446479522439	0.340253100458161	3
[892] myo-inositol [19.707]	90	1804.69231438528	1.21273040239502	2.10051067283163	0.857529891284613	7.49814471628273	0.000671733465927887	0.00116347649213144	0.000474987288907551	1804.40423744726	1.3387337480886	1.27912952342312	0.607804094867729	1804.69231438528	1.21273040239502	2.10051067283163	0.857529891284613	3
[892] myo-inositol [19.707]	91	1803.80476256268	0.194848238447669	0.337487048756659	0.1377785107086	7.49765345252116	0.000108013549850643	0.000187084956247187	7.63771135594208e-05	1803.7542458458	0.21477283838177	0.204900909189801	0.0978796345133566	1803.80476256268	0.194848238447669	0.337487048756659	0.1377785107086	3
[892] myo-inositol [19.707]	92	1804.5070800918	1.41560028721602	2.45189162066724	1.00098056254007	7.49804182497709	0.000784199442671574	0.00135827327797436	0.000554512743715781	1804.23588845772	1.56706479315067	1.50127998108721	0.70656550869684	1804.5070800918	1.41560028721602	2.45189162066724	1.00098056254007	3
[892] myo-inositol [19.707]	93	1803.33787499148	0.190253302582615	0.329528386380865	0.134529400399303	7.49739458495179	0.000105507459163854	0.000182744279849294	7.46050398405242e-05	1803.38721103581	0.209707547697207	0.200067572847462	0.0955720446239789	1803.33787499148	0.190253302582615	0.329528386380865	0.134529400399303	3
[892] myo-inositol [19.707]	94	1803.32797245479	0.195185357230828	0.338070955617275	0.138016889686237	7.4973890928331	0.000108243317306298	0.000187482925154308	7.65395836854106e-05	1803.37819212165	0.215173957685339	0.205312297869198	0.0980257299704335	1803.32797245479	0.195185357230828	0.338070955617275	0.138016889686237	3
[892] myo-inositol [19.707]	95	1804.01815857821	0.684657591920616	1.18586173499427	0.48412602603792	7.49777155030209	0.000379451614143595	0.000657229474710727	0.000268312809493117	1803.8856033505	0.757829193596289	0.725940137909703	0.341785124780244	1804.01815857821	0.684657591920616	1.18586173499427	0.48412602603792	3
[892] myo-inositol [19.707]	96	1803.80027767789	0.17667554306167	0.306011017037636	0.124928474568723	7.49765096928304	9.79404155127646e-05	0.000169637775782515	6.9254331961304e-05	1803.75446291123	0.194741793159486	0.185789906955973	0.088750709608021	1803.80027767789	0.17667554306167	0.306011017037636	0.124928474568723	3
[892] myo-inositol [19.707]	97	1803.32751776277	0.197169661815532	0.341507871975675	0.139420004914021	7.49738884033339	0.000109343898965571	0.000189389188506047	7.73178124399319e-05	1803.3786275891	0.217332447242926	0.207343438341732	0.0990455146500116	1803.32751776277	0.197169661815532	0.341507871975675	0.139420004914021	3
[892] myo-inositol [19.707]	98	1803.09534286542	0.389611098343731	0.674826217524056	0.275496649664391	7.49726003188265	0.000216107634519333	0.00037430940289101	0.000152811173834804	1803.19635812073	0.429447633385414	0.409706642156843	0.195722852595281	1803.09534286542	0.389611098343731	0.674826217524056	0.275496649664391	3
[892] myo-inositol [19.707]	99	1803.09071358562	0.193462869727199	0.335087519745588	0.136798907091912	7.49725751725298	0.00010728809178583	0.000185828426020171	7.58641372423252e-05	1803.04054633422	0.213245070534417	0.203442439573756	0.0971840882467057	1803.09071358562	0.193462869727199	0.335087519745588	0.136798907091912	3
[892] myo-inositol [19.707]	100	1804.0392930289	0.193567226930981	0.335268271724674	0.136872698778372	7.49778346417317	0.000107303614982887	0.000185855312986169	7.58751138002297e-05	1804.08944074147	0.213363526982305	0.203557920971893	0.0972328652868183	1804.0392930289	0.193567226930981	0.335268271724674	0.136872698778372	3
[892] myo-inositol [19.707]	1	1803.70137283984	0.735795285148756	1.47159057029751	0.520285835693775	7.49759581818483	0.000407744371516244	0.000815488743032488	0.000288318810089783	1803.37610131375	0.701269585574603	0.803428561981859	0.362546539164854	1803.70137283984	0.735795285148756	1.47159057029751	0.520285835693775	4
[892] myo-inositol [19.707]	2	1802.84112237145	0.258184878766203	0.516369757532405	0.182564278575409	7.49711905981653	0.000143212266566426	0.000286424533132852	0.000101266364838215	1802.85120945323	0.266263663860519	0.304196395644201	0.126841864866464	1802.84112237145	0.258184878766203	0.516369757532405	0.182564278575409	4
[892] myo-inositol [19.707]	3	1803.37610624183	0.396342636724026	0.792685273448052	0.280256566100915	7.49741570507158	0.000219808724130071	0.000439617448260142	0.000155428239396336	1803.46680338026	0.401237677817898	0.45864382155912	0.194611630638069	1803.37610624183	0.396342636724026	0.792685273448052	0.280256566100915	4
[892] myo-inositol [19.707]	4	1802.85279934664	0.250089436454401	0.500178872908802	0.176839936420029	7.49712553931391	0.000138719023426864	0.000277438046853727	9.80891621447108e-05					1802.85279934664	0.250089436454401	0.500178872908802	0.176839936420029	4
[892] myo-inositol [19.707]	5	1802.86637417975	0.438209145205436	0.876418290410872	0.309860658152724	7.49713298922227	0.000243109906189783	0.000486219812379565	0.000171904663240421	1802.9933420529	0.454001887393006	0.512148578816181	0.215130909922227	1802.86637417975	0.438209145205436	0.876418290410872	0.309860658152724	4
[892] myo-inositol [19.707]	6	1802.85452180759	0.00410147959826764	0.00820295919653528	0.00290018403683332	7.49712653319751	2.27498883814731e-06	4.54997767629462e-06	1.60866003457767e-06					1802.85452180759	0.00410147959826764	0.00820295919653528	0.00290018403683332	4
[892] myo-inositol [19.707]	7	1804.40171128268	0.609399657510067	1.21879931502013	0.430910630278128	7.4979841257923	0.000337744339118311	0.000675488678236622	0.000238821312497927	1804.42831556663	0.717127861050698	0.778780389720052	0.302559056043339	1804.40171128268	0.609399657510067	1.21879931502013	0.430910630278128	4
[892] myo-inositol [19.707]	8	1802.99887281817	0.456033523428925	0.91206704685785	0.322464396864987	7.49720647003558	0.000253004135055332	0.000506008270110665	0.000178900939565863	1803.19931495697	0.435175104605879	0.498512359485602	0.224663441580676	1802.99887281817	0.456033523428925	0.91206704685785	0.322464396864987	4
[892] myo-inositol [19.707]	9	1803.3763519023	0.153668422466183	0.307336844932367	0.108659983580077	7.49741592339304	8.52196715820183e-05	0.000170439343164037	6.02594076661357e-05	1803.44208148639	0.14752066331409	0.168880692690587	0.0756486267225234	1803.3763519023	0.153668422466183	0.307336844932367	0.108659983580077	4
[892] myo-inositol [19.707]	10	1803.38219871748	0.152304849148122	0.304609698296245	0.107695791640231	7.49741916579364	8.44633403983864e-05	0.000168926680796773	5.97246007573667e-05	1803.44941288389	0.145213610912241	0.166362771733065	0.0750371260880607	1803.38219871748	0.152304849148122	0.304609698296245	0.107695791640231	4
[892] myo-inositol [19.707]	11	1803.38522585618	0.292611345992277	0.585222691984553	0.206907467003262	7.49742080600051	0.00016224303102594	0.000324486062051879	0.000114723147438701	1803.33217877796	0.321451384165867	0.356971679269755	0.144103287656627	1803.38522585618	0.292611345992277	0.585222691984553	0.206907467003262	4
[892] myo-inositol [19.707]	12	1803.57247792063	0.251004899373851	0.502009798747702	0.177487266458297	7.49752464816849	0.000139170555480662	0.000278341110961325	9.8408443521875e-05	1803.57061352875	0.259049133635083	0.295926083449051	0.123318843711977	1803.57247792063	0.251004899373851	0.502009798747702	0.177487266458297	4
[892] myo-inositol [19.707]	13	1803.36503996406	0.149421352394448	0.298842704788897	0.105656851532179	7.4974096515208	8.28644209072266e-05	0.000165728841814453	5.85939939425963e-05	1803.42636793463	0.144786010732246	0.165534338485342	0.0734918662332891	1803.36503996406	0.149421352394448	0.298842704788897	0.105656851532179	4
[892] myo-inositol [19.707]	14	1803.37761962977	0.149312508115996	0.298625016231993	0.105579887004793	7.49741662717897	8.28039435093256e-05	0.000165607887018651	5.85512299644319e-05	1803.443582305	0.142328629511978	0.163060920286056	0.0735646544065888	1803.37761962977	0.149312508115996	0.298625016231993	0.105579887004793	4
[892] myo-inositol [19.707]	15	1802.19475354328	1.18410875109135	2.3682175021827	0.837291327559028	7.49675964438611	0.00065753638896405	0.0013150727779281	0.000464948439513395	1802.71817474321	1.12856231976813	1.29296652312696	0.58344271445398	1802.19475354328	1.18410875109135	2.3682175021827	0.837291327559028	4
[892] myo-inositol [19.707]	16	1804.40606562338	0.944082247356326	1.88816449471265	0.667566959103493	7.49798622001297	0.00052291767723338	0.00104583535446676	0.000369758635574042					1804.40606562338	0.944082247356326	1.88816449471265	0.667566959103493	4
[892] myo-inositol [19.707]	17	1804.45788458774	1.68417855375696	3.36835710751393	1.1908940760905	7.49801374428367	0.00093260547305292	0.00186521094610584	0.000659451654167407	1803.9368416945	1.71977941282562	1.94769476190006	0.826697540167487	1804.45788458774	1.68417855375696	3.36835710751393	1.1908940760905	4
[892] myo-inositol [19.707]	18	1803.55060682365	0.743311656400127	1.48662331280025	0.525600712775535	7.49751222057119	0.00041214122637004	0.00082428245274008	0.000291427855972795					1803.55060682365	0.743311656400127	1.48662331280025	0.525600712775535	4
[892] myo-inositol [19.707]	19	1804.4512616668	1.19414835529116	2.38829671058232	0.844390399769143	7.4980109393399	0.000661295340316649	0.0013225906806333	0.000467606419504968	1803.94970215256	1.1511486451135	1.31707537050319	0.587645878833241	1804.4512616668	1.19414835529116	2.38829671058232	0.844390399769143	4
[892] myo-inositol [19.707]	20	1803.02948254588	0.675711455127219	1.35142291025444	0.477800152045886	7.49722329396928	0.000374906981529521	0.000749813963059042	0.000265099268953704	1803.28607235092	0.659409635849645	0.754621781881312	0.332147816496744	1803.02948254588	0.675711455127219	1.35142291025444	0.477800152045886	4
[892] myo-inositol [19.707]	21	1804.95554618067	1.09150492770885	2.18300985541771	0.771810536081463	7.4982905110373	0.000604654019902366	0.00120930803980473	0.000427554957744669	1804.88167662744	1.27067483150298	1.38512400702416	0.541072124479709	1804.95554618067	1.09150492770885	2.18300985541771	0.771810536081463	4
[892] myo-inositol [19.707]	22	1801.66744922806	1.23213426699905	2.4642685339981	0.871250495527346	7.49646693941434	0.000684404198907276	0.00136880839781455	0.000483946850119882	1802.18542611395	1.18508425853	1.35700520723495	0.606450883685827	1801.66744922806	1.23213426699905	2.4642685339981	0.871250495527346	4
[892] myo-inositol [19.707]	23	1803.20581638582	0.177793777686853	0.355587555373706	0.125719185855147	7.49732134942797	9.85987149326792e-05	0.000197197429865358	6.97198199451768e-05					1803.20581638582	0.177793777686853	0.355587555373706	0.125719185855147	4
[892] myo-inositol [19.707]	24	1804.38859068868	1.01385255787321	2.02770511574643	0.716902018795477	7.49797645135234	0.000561674822960543	0.00112334964592109	0.000397164076137153	1804.14855317299	1.03615403933473	1.17947760081317	0.497753704113997	1804.38859068868	1.01385255787321	2.02770511574643	0.716902018795477	4
[892] myo-inositol [19.707]	25	1803.21389289236	0.30643173533258	0.61286347066516	0.216679958024429	7.49732579006044	0.000169969791227985	0.000339939582455969	0.00012018679197417	1803.34934984404	0.292057090027709	0.334602911187652	0.150985109712478	1803.21389289236	0.30643173533258	0.61286347066516	0.216679958024429	4
[892] myo-inositol [19.707]	26	1803.38312971141	0.524288298860776	1.04857659772155	0.370727811421214	7.49741952729434	0.000290690402661488	0.000581380805322975	0.000205549154947786	1803.30775938125	0.559097387227291	0.628988508529442	0.257717717577326	1803.38312971141	0.524288298860776	1.04857659772155	0.370727811421214	4
[892] myo-inositol [19.707]	27	1803.38077448229	0.153335060260121	0.306670120520242	0.10842426090358	7.49741837584182	8.50347346690846e-05	0.000170069469338169	6.01286375209085e-05					1803.38077448229	0.153335060260121	0.306670120520242	0.10842426090358	4
[892] myo-inositol [19.707]	28	1803.2205065022	0.309741962621881	0.619483925243763	0.219020642187962	7.49732945650934	0.000171737507661891	0.000343475015323783	0.0001214367562518	1803.08368244995	0.29525507903507	0.338263409560131	0.152613139287162	1803.2205065022	0.309741962621881	0.619483925243763	0.219020642187962	4
[892] myo-inositol [19.707]	29	1803.20441098384	0.309200642544603	0.618401285089205	0.218637871090526	7.49732053065889	0.000171506818264661	0.000343013636529323	0.000121273634214671	1803.34099018757	0.294742804585764	0.337675232462618	0.152346533728478	1803.20441098384	0.309200642544603	0.618401285089205	0.218637871090526	4
[892] myo-inositol [19.707]	30	1803.39500773351	0.157079744452515	0.314159488905029	0.111072152489423	7.49742626763388	8.71109975965413e-05	0.000174221995193083	6.15967771164394e-05	1803.46440188986	0.14973225605049	0.171542989580012	0.0773919440747221	1803.39500773351	0.157079744452515	0.314159488905029	0.111072152489423	4
[892] myo-inositol [19.707]	31	1803.38267086399	0.770112932491749	1.5402258649835	0.544552076844374	7.49741907721472	0.000426980785355708	0.000853961570711417	0.000301921008761379	1803.29684426601	0.806920358186267	0.914945271143861	0.378358106093353	1803.38267086399	0.770112932491749	1.5402258649835	0.544552076844374	4
[892] myo-inositol [19.707]	32	1802.32117120534	0.292469618113816	0.584939236227633	0.206807250259319	7.49683060002959	0.000162286677648396	0.000324573355296792	0.000114754010261416	1802.3705949232	0.323382668508912	0.358425067140352	0.144115622423294	1802.32117120534	0.292469618113816	0.584939236227633	0.206807250259319	4
[892] myo-inositol [19.707]	33	1801.80240410143	0.719102757193875	1.43820551438775	0.508482435981732	7.49654245975657	0.000399264295424656	0.000798528590849311	0.000282322490780443	1802.07590060705	0.708401476413183	0.807710060234682	0.35329918317876	1801.80240410143	0.719102757193875	1.43820551438775	0.508482435981732	4
[892] myo-inositol [19.707]	34	1802.68403660089	0.386420882790121	0.772841765580241	0.273240826612986	7.49703187278002	0.000214389002861377	0.000428778005722754	0.000151595917735102	1802.77650450427	0.390474876174974	0.446364494409979	0.189736405338316	1802.68403660089	0.386420882790121	0.772841765580241	0.273240826612986	4
[892] myo-inositol [19.707]	35	1802.66363094498	0.302174128764172	0.604348257528343	0.213669375548283	7.49702058884454	0.000167613613086048	0.000335227226172095	0.000118520722432322					1802.66363094498	0.302174128764172	0.604348257528343	0.213669375548283	4
[892] myo-inositol [19.707]	36	1803.38266241735	0.148308807351023	0.296617614702046	0.104870163387598	7.4974194236604	8.22470156077933e-05	0.000164494031215586	5.81574224686264e-05	1803.44792995891	0.141489645559931	0.162087121425355	0.0730624740769826	1803.38266241735	0.148308807351023	0.296617614702046	0.104870163387598	4
[892] myo-inositol [19.707]	37	1804.5850969569	0.945402640927437	1.89080528185487	0.668500618351461	7.49808543225969	0.000523877134332152	0.0010477542686643	0.000370437074194841	1804.57043352397	1.05969505400779	1.17257223518327	0.466505981301657	1804.5850969569	0.945402640927437	1.89080528185487	0.668500618351461	4
[892] myo-inositol [19.707]	38	1803.37705459212	0.288570424283367	0.577140848566733	0.204050103860648	7.4974162763633	0.000160005384624668	0.000320010769249336	0.000113140892494464	1803.33294962027	0.321762884684662	0.355720848045112	0.142308189581692	1803.37705459212	0.288570424283367	0.577140848566733	0.204050103860648	4
[892] myo-inositol [19.707]	39	1803.20599874719	0.176352601809138	0.352705203618275	0.124700120619132	7.49732145087366	9.77994539826515e-05	0.000195598907965303	6.91546571074746e-05					1803.20599874719	0.176352601809138	0.352705203618275	0.124700120619132	4
[892] myo-inositol [19.707]	40	1803.39043895695	0.154858791765947	0.309717583531893	0.109501701784056	7.49742373462587	8.58794281926063e-05	0.000171758856385213	6.07259260394151e-05	1803.45883920859	0.14762104254906	0.169123725797203	0.0762973233747711	1803.39043895695	0.154858791765947	0.309717583531893	0.109501701784056	4
[892] myo-inositol [19.707]	41	1801.99687300493	0.955783826001909	1.91156765200382	0.675841224714373	7.49665013979182	0.000530706382625714	0.00106141276525143	0.000375266081973625	1802.38654570674	0.923741192953354	1.05751645936812	0.470202143794311	1801.99687300493	0.955783826001909	1.91156765200382	0.675841224714373	4
[892] myo-inositol [19.707]	42	1803.02820284205	0.152300654977101	0.304601309954202	0.107692825913461	7.49722285098797	8.44611421100308e-05	0.000168922284220062	5.97230463327635e-05	1802.96097392238	0.145201637268688	0.166349979154687	0.0750355686272121	1803.02820284205	0.152300654977101	0.304601309954202	0.107692825913461	4
[892] myo-inositol [19.707]	43	1802.84459044265	0.264090866940986	0.528181733881971	0.186740442863405	7.49712098158693	0.000146487274590405	0.00029297454918081	0.000103582145220411	1802.85163040451	0.272524745403903	0.311306579200167	0.12974592569648	1802.84459044265	0.264090866940986	0.528181733881971	0.186740442863405	4
[892] myo-inositol [19.707]	44	1803.56093093071	0.252144997449129	0.504289994898258	0.178293437538544	7.49751824550696	0.000139803934161587	0.000279607868323174	9.88563098822159e-05	1803.56066759162	0.260239680151682	0.297282132998359	0.123879347143921	1803.56093093071	0.252144997449129	0.504289994898258	0.178293437538544	4
[892] myo-inositol [19.707]	45	1804.27288392218	0.61470604208454	1.22941208416908	0.434662810794322	7.49791272319124	0.000340560740251717	0.000681121480503434	0.0002408128088379	1804.00122941599	0.585901394459828	0.671250172034875	0.302879183054849	1804.27288392218	0.61470604208454	1.22941208416908	0.434662810794322	4
[892] myo-inositol [19.707]	46	1803.20962603353	0.175940511003356	0.351881022006713	0.1244087284159	7.49732346253724	9.75707619507969e-05	0.000195141523901594	6.89929474209469e-05					1803.20962603353	0.175940511003356	0.351881022006713	0.1244087284159	4
[892] myo-inositol [19.707]	47	1801.82905476444	1.08828595056318	2.17657190112637	0.769534375513275	7.49655683925413	0.000604384862541121	0.00120876972508224	0.000427364634749326	1802.27442157381	1.05125483374538	1.20350079353927	0.535413319247028	1801.82905476444	1.08828595056318	2.17657190112637	0.769534375513275	4
[892] myo-inositol [19.707]	48	1804.44654099977	0.681078094925928	1.36215618985186	0.481594939439739	7.49800891337503	0.000377404008141791	0.000754808016283583	0.000266864933404044	1804.37978721454	0.757129662642703	0.839453727163608	0.335792515106528	1804.44654099977	0.681078094925928	1.36215618985186	0.481594939439739	4
[892] myo-inositol [19.707]	49	1803.54158899401	0.747331332189563	1.49466266437913	0.528443052784417	7.49750721682913	0.000414371588471087	0.000828743176942175	0.000293004960138947	1803.54557558091	0.771144005299255	0.880981475688945	0.367170098549527	1803.54158899401	0.747331332189563	1.49466266437913	0.528443052784417	4
[892] myo-inositol [19.707]	50	1803.02330653114	0.150965525402106	0.301931050804212	0.106748746737219	7.49722013562909	8.3721013453744e-05	0.000167442026907488	5.91996963409526e-05	1802.95660003063	0.14389818812804	0.164859675987614	0.0743795797084498	1803.02330653114	0.150965525402106	0.301931050804212	0.106748746737219	4
[892] myo-inositol [19.707]	51	1803.74186997692	0.157168252897881	0.314336505795762	0.111134737411334	7.49761858760578	8.71258415897421e-05	0.000174251683179484	6.16072734046916e-05	1803.67284544629	0.15000830614344	0.171838416551674	0.0774232297476566	1803.74186997692	0.157168252897881	0.314336505795762	0.111134737411334	4
[892] myo-inositol [19.707]	52	1803.73983696384	0.382754166611471	0.765508333222943	0.270648066738377	7.49761738563789	0.000212171133578382	0.000424342267156764	0.000150027647325311	1803.64991155036	0.387055097520844	0.442451725059581	0.187936646907726	1803.73983696384	0.382754166611471	0.765508333222943	0.270648066738377	4
[892] myo-inositol [19.707]	53	1804.82017271838	1.50227860215659	3.00455720431317	1.06227138681637	7.4982148545458	0.000831592782717408	0.00166318556543482	0.00058802489584527	1804.17692466204	1.44193989313778	1.65071455823247	0.739605204861289	1804.82017271838	1.50227860215659	3.00455720431317	1.06227138681637	4
[892] myo-inositol [19.707]	54	1803.1988754796	0.174629599285587	0.349259198571175	0.123481773850728	7.49731750090278	9.68443387774429e-05	0.000193688677554886	6.84792886690572e-05					1803.1988754796	0.174629599285587	0.349259198571175	0.123481773850728	4
[892] myo-inositol [19.707]	55	1803.2064745106	0.175742971091829	0.351485942183658	0.124269046604904	7.49732171484874	9.74613290122964e-05	0.000194922658024593	6.8915566648048e-05					1803.2064745106	0.175742971091829	0.351485942183658	0.124269046604904	4
[892] myo-inositol [19.707]	56	1803.88505659652	0.503029618503639	1.00605923700728	0.355695654381605	7.49769782726201	0.000278792213267055	0.000557584426534109	0.00019713586454314	1803.72570440833	0.499864564976928	0.57170203946977	0.247037374434934	1803.88505659652	0.503029618503639	1.00605923700728	0.355695654381605	4
[892] myo-inositol [19.707]	57	1803.70486036842	0.73479188237636	1.46958376475272	0.519576322789153	7.49759775263042	0.000407187810633844	0.000814375621267688	0.000287925262115695	1803.38004323706	0.700318172201101	0.802338076606809	0.362051806953497	1803.70486036842	0.73479188237636	1.46958376475272	0.519576322789153	4
[892] myo-inositol [19.707]	58	1803.20203206007	0.178263796570705	0.356527593141411	0.126051539395205	7.49731925065729	9.88595793878409e-05	0.000197719158775682	6.99042789703921e-05					1803.20203206007	0.178263796570705	0.356527593141411	0.126051539395205	4
[892] myo-inositol [19.707]	59	1804.39517160141	0.946327003287055	1.89265400657411	0.669154241244221	7.49798017993116	0.0005241615812452	0.0010483231624904	0.000370638208535945	1804.01095986231	0.915158633605254	1.04766703182349	0.465521603824831	1804.39517160141	0.946327003287055	1.89265400657411	0.669154241244221	4
[892] myo-inositol [19.707]	60	1802.37336573193	1.26785789379808	2.53571578759615	0.896510914285513	7.49685862132828	0.000703927167877134	0.00140785433575427	0.000497751673867363	1802.83796353327	1.25866040248043	1.43306039697121	0.622669775558391	1802.37336573193	1.26785789379808	2.53571578759615	0.896510914285513	4
[892] myo-inositol [19.707]	61	1803.20537125337	0.175673469240108	0.351346938480216	0.124219901374247	7.49732110303277	9.74228513326501e-05	0.0001948457026653	6.88883588198458e-05					1803.20537125337	0.175673469240108	0.351346938480216	0.124219901374247	4
[892] myo-inositol [19.707]	62	1802.83667571055	0.260800060111907	0.521600120223815	0.184413491038989	7.49711659250422	0.00014466270419202	0.00028932540838404	0.000102291979118961	1802.84440868916	0.269022604749765	0.3073467689671	0.128128997636949	1802.83667571055	0.260800060111907	0.521600120223815	0.184413491038989	4
[892] myo-inositol [19.707]	63	1803.20520582727	0.178913344557664	0.357826689115329	0.12651083918149	7.49732101058611	9.92196203727598e-05	0.00019843924074552	7.01588663923334e-05					1803.20520582727	0.178913344557664	0.357826689115329	0.12651083918149	4
[892] myo-inositol [19.707]	64	1803.39023942559	0.296448900211946	0.592897800423891	0.209621027615161	7.497423584695	0.000164369956720926	0.000328739913441851	0.000116227111020706	1803.33556960811	0.325131419287947	0.361233005996305	0.145973046595097	1803.39023942559	0.296448900211946	0.592897800423891	0.209621027615161	4
[892] myo-inositol [19.707]	65	1804.2265000194	0.584211283258974	1.16842256651795	0.413099760038115	7.49788703748534	0.000323680571127377	0.000647361142254753	0.000228876726782503	1803.96826418972	0.556810037592974	0.637923447427742	0.28785563626481	1804.2265000194	0.584211283258974	1.16842256651795	0.413099760038115	4
[892] myo-inositol [19.707]	66	1803.53680590667	0.0214708356554441	0.0429416713108881	0.0151821734897064	7.49750490789552	1.19049723278188e-05	2.38099446556376e-05	8.41808666283887e-06	1803.54360069013	0.0213940374388553	0.0244553101530249	0.01051502040619	1803.53680590667	0.0214708356554441	0.0429416713108881	0.0151821734897064	4
[892] myo-inositol [19.707]	67	1802.19603938891	1.18446913025817	2.36893826051635	0.837546154111687	7.49676035734934	0.000657736217708149	0.0013154724354163	0.000465089739773423	1802.71965466309	1.12889000903343	1.29334345405441	0.583621303821867	1802.19603938891	1.18446913025817	2.36893826051635	0.837546154111687	4
[892] myo-inositol [19.707]	68	1803.38473272277	0.153553395026483	0.307106790052965	0.108578646897443	7.49742057069826	8.5155702500077e-05	0.000170311405000154	6.02141746945087e-05	1803.4526014889	0.1463548619788	0.167674095558776	0.0756536015720535	1803.38473272277	0.153553395026483	0.307106790052965	0.108578646897443	4
[892] myo-inositol [19.707]	69	1800.2909772253	1.13158543769196	2.26317087538393	0.800151736483935	7.49570279461279	0.000628588678263615	0.00125717735652723	0.000444479316977291	1800.32116756279	1.32856831468132	1.44425582622615	0.561624552379974	1800.2909772253	1.13158543769196	2.26317087538393	0.800151736483935	4
[892] myo-inositol [19.707]	70	1803.18941307338	0.164697410462313	0.329394820924626	0.116458655781766	7.4973122553953	9.13365190779832e-05	0.000182673038155966	6.45846720100164e-05					1803.18941307338	0.164697410462313	0.329394820924626	0.116458655781766	4
[892] myo-inositol [19.707]	71	1803.87992946617	0.698257623211738	1.39651524642348	0.493742700388221	7.49769484094837	0.000386933032935654	0.000773866065871308	0.000273602971453879	1803.61213224789	0.686649793505862	0.78315583811258	0.343091722183079	1803.87992946617	0.698257623211738	1.39651524642348	0.493742700388221	4
[892] myo-inositol [19.707]	72	1802.91325535311	1.74651892676091	3.49303785352181	1.23497537658329	7.49715723265542	0.000969210918431862	0.00193842183686372	0.000685335612823212	1803.23942572477	1.77961638375542	2.03384408685056	0.857679511584517	1802.91325535311	1.74651892676091	3.49303785352181	1.23497537658329	4
[892] myo-inositol [19.707]	73	1801.14697368141	1.22626757823995	2.45253515647989	0.867102120122672	7.49617802142158	0.000680872704479858	0.00136174540895972	0.000481449706462532	1801.18807070816	1.4515959654504	1.57301517840344	0.609378121176098	1801.14697368141	1.22626757823995	2.45253515647989	0.867102120122672	4
[892] myo-inositol [19.707]	74	1802.84552074642	0.436481252114165	0.872962504228329	0.308638853230721	7.49712142326114	0.000242154658615008	0.000484309317230015	0.000171229201202585	1802.97421241369	0.450894460763503	0.509005769198106	0.214271012823509	1802.84552074642	0.436481252114165	0.872962504228329	0.308638853230721	4
[892] myo-inositol [19.707]	75	1803.36961544125	0.149537383844627	0.299074767689254	0.105738898157432	7.49741218868492	8.29284895590398e-05	0.00016585697911808	5.86392973207549e-05	1803.43026956992	0.145240849032219	0.166004805804884	0.0735341809835419	1803.36961544125	0.149537383844627	0.299074767689254	0.105738898157432	4
[892] myo-inositol [19.707]	76	1804.80525757239	1.08340931088847	2.16681862177695	0.766086070529884	7.49820725436978	0.000599876111891282	0.00119975222378256	0.000424176466590146	1804.32631015148	1.03256844647457	1.18298979475893	0.533825985405238	1804.80525757239	1.08340931088847	2.16681862177695	0.766086070529884	4
[892] myo-inositol [19.707]	77	1803.56647328937	0.43781897165885	0.875637943317701	0.309584763792094	7.4975212397752	0.000242704350974764	0.000485408701949528	0.000171617892397735	1803.43905157749	0.45327316085864	0.511414349443431	0.214936338592398	1803.56647328937	0.43781897165885	0.875637943317701	0.309584763792094	4
[892] myo-inositol [19.707]	78	1804.06956085425	0.662699679835367	1.32539935967073	0.468599437501742	7.49779998919651	0.000367379949099549	0.000734759898199098	0.00025977685328026	1804.14388213185	0.738633085206881	0.817819414968986	0.326809158201912	1804.06956085425	0.662699679835367	1.32539935967073	0.468599437501742	4
[892] myo-inositol [19.707]	79	1803.74628682115	0.888869395245345	1.77773879049069	0.628525576967169	7.49762056590724	0.000492718389733132	0.000985436779466264	0.000348404514595614	1803.65147531098	0.91345637162929	1.04370023375904	0.436628506083609	1803.74628682115	0.888869395245345	1.77773879049069	0.628525576967169	4
[892] myo-inositol [19.707]	80	1803.56518913835	0.0043938470804039	0.00878769416080779	0.00310691906605031	7.49752064558274	2.43620756884719e-06	4.87241513769439e-06	1.72265889230984e-06					1803.56518913835	0.0043938470804039	0.00878769416080779	0.00310691906605031	4
[892] myo-inositol [19.707]	81	1803.21548573101	0.307915936546922	0.615831873093844	0.217729446767735	7.49732667286291	0.000170725734173798	0.000341451468347597	0.000120721324357345	1803.07946266782	0.293512574556976	0.336266514371417	0.151713905465703	1803.21548573101	0.307915936546922	0.615831873093844	0.217729446767735	4
[892] myo-inositol [19.707]	82	1802.36032057847	1.44138043890174	2.88276087780349	1.01920988261706	7.49685109359264	0.000800381366160544	0.00160076273232109	0.000565955091547474	1802.92062027603	1.40239986050673	1.60507192165915	0.708676452985165	1802.36032057847	1.44138043890174	2.88276087780349	1.01920988261706	4
[892] myo-inositol [19.707]	83	1803.0378687831	0.156111301376576	0.312222602753152	0.110387359823234	7.49722821119922	8.65737416659396e-05	0.000173147483331879	6.12168798046782e-05	1802.96905576227	0.148879548471917	0.170558462551881	0.0769089893712254	1803.0378687831	0.156111301376576	0.312222602753152	0.110387359823234	4
[892] myo-inositol [19.707]	84	1803.01916195811	0.300720371027247	0.601440742054493	0.212641413594301	7.49721779532369	0.00016680176587454	0.00033360353174908	0.000117946659763778	1803.07438002317	0.329946785822143	0.366542582704975	0.148083336227842	1803.01916195811	0.300720371027247	0.601440742054493	0.212641413594301	4
[892] myo-inositol [19.707]	85	1803.73492376546	0.39079988199015	0.7815997639803	0.276337246642138	7.49761465791403	0.00021663020636977	0.000433260412739541	0.000153180687933906	1803.64042507985	0.394704127441004	0.451211709260087	0.191886199097961	1803.73492376546	0.39079988199015	0.7815997639803	0.276337246642138	4
[892] myo-inositol [19.707]	86	1803.38124857772	0.154447454606039	0.308894909212078	0.109210842488932	7.49741863852378	8.56517116272394e-05	0.000171303423254479	6.05649061118556e-05	1803.44930221991	0.147305228729155	0.16875344100337	0.076088231615686	1803.38124857772	0.154447454606039	0.308894909212078	0.109210842488932	4
[892] myo-inositol [19.707]	87	1802.35194457035	1.446000591264	2.892001182528	1.02247682368253	7.49684643809936	0.000802952651189381	0.00160590530237876	0.000567773264627728	1802.91394011393	1.40693900112614	1.61026107142547	0.710946536380315	1802.35194457035	1.446000591264	2.892001182528	1.02247682368253	4
[892] myo-inositol [19.707]	88	1802.83920178473	0.428206012054415	0.856412024108829	0.302787374868525	7.49711792266536	0.000237563904853309	0.000475127809706617	0.00016798304808693	1802.96641826287	0.441619866234993	0.498758266113861	0.210203662552037	1802.83920178473	0.428206012054415	0.856412024108829	0.302787374868525	4
[892] myo-inositol [19.707]	89	1802.02305844289	1.40810710047616	2.81621420095232	0.995682079383618	7.49666401196894	0.000781865534963715	0.00156373106992743	0.00055286242174889	1802.4075700342	1.44216856101713	1.63618886338425	0.691226319657246	1802.02305844289	1.40810710047616	2.81621420095232	0.995682079383618	4
[892] myo-inositol [19.707]	90	1803.90776290696	0.522291768478433	1.04458353695687	0.369316051249015	7.49771040250434	0.000289459379141515	0.00057891875828303	0.000204678689869013	1803.7369976279	0.517644246588518	0.592084882990348	0.25651942512604	1803.90776290696	0.522291768478433	1.04458353695687	0.369316051249015	4
[892] myo-inositol [19.707]	91	1803.39076457866	0.153728663356728	0.307457326713456	0.108702580322286	7.49742391540122	8.52525982567314e-05	0.000170505196513463	6.02826903411072e-05	1803.45844972285	0.146643381656285	0.16799303208958	0.075732989478498	1803.39076457866	0.153728663356728	0.307457326713456	0.108702580322286	4
[892] myo-inositol [19.707]	92	1803.38487939603	0.154940362293041	0.309880724586082	0.10955938085691	7.49742065176729	8.59249258397988e-05	0.000171849851679598	6.07580977342729e-05	1803.45323953678	0.147733445982135	0.169248707005983	0.0763334299385155	1803.38487939603	0.154940362293041	0.309880724586082	0.10955938085691	4
[892] myo-inositol [19.707]	93	1803.35380951674	0.458334931660799	0.916669863321598	0.324091738232024	7.49740330853567	0.000254173365067249	0.000508346730134498	0.000179727710036056					1803.35380951674	0.458334931660799	0.916669863321598	0.324091738232024	4
[892] myo-inositol [19.707]	94	1804.07762101498	0.292118387206147	0.584236774412294	0.206558892502744	7.49780467443617	0.000161907247694312	0.000323814495388624	0.000114485712767898	1804.0233499786	0.320142072371819	0.35576817910318	0.143831461178092	1804.07762101498	0.292118387206147	0.584236774412294	0.206558892502744	4
[892] myo-inositol [19.707]	95	1803.39422309011	0.292621301577226	0.585242603154453	0.20691450666489	7.49742579506489	0.000162249003802605	0.000324498007605211	0.000114727370829584	1803.34631457638	0.3244448680688	0.359302963438049	0.144227241121837	1803.39422309011	0.292621301577226	0.585242603154453	0.20691450666489	4
[892] myo-inositol [19.707]	96	1804.39530758212	1.01412606512099	2.02825213024197	0.717095417625079	7.49798017353445	0.000561828691250792	0.00112365738250158	0.000397272877448598	1804.16061107044	1.03725089232251	1.18076183978175	0.497897649309489	1804.39530758212	1.01412606512099	2.02825213024197	0.717095417625079	4
[892] myo-inositol [19.707]	97	1803.57344148312	0.00339090162228717	0.00678180324457434	0.00239772953145572	7.49752522115041	1.88010409283553e-06	3.76020818567106e-06	1.32943435338058e-06	1803.57417999138	0.00368802260217178	0.00419095392335012	0.00148592685976627	1803.57344148312	0.00339090162228717	0.00678180324457434	0.00239772953145572	4
[892] myo-inositol [19.707]	98	1803.38838056742	0.154607993299088	0.309215986598175	0.109324360487429	7.4974225932731	8.57404322466974e-05	0.000171480864493395	6.06276410635055e-05	1803.45670969237	0.147363495422125	0.168829589431857	0.0761744464125197	1803.38838056742	0.154607993299088	0.309215986598175	0.109324360487429	4
[892] myo-inositol [19.707]	99	1803.2145493825	0.172045592871768	0.344091185743536	0.121654605392887	7.49732619369266	9.54104838851861e-05	0.000190820967770372	6.74654001515049e-05					1803.2145493825	0.172045592871768	0.344091185743536	0.121654605392887	4
[892] myo-inositol [19.707]	100	1803.37951616339	0.294432377641218	0.588864755282436	0.208195130830984	7.49741763924074	0.000163253142899479	0.000326506285798958	0.000115437404394238	1803.32606045642	0.323416024734344	0.359164189932799	0.144998751429686	1803.37951616339	0.294432377641218	0.588864755282436	0.208195130830984	4
[892] myo-inositol [19.707]	1	1802.69840642146	0.241727220369022	0.540518496757206	0.170926956720311	7.49703989106309	0.000134086313207002	0.000299826111183183	9.48133413329741e-05	1802.68078791629	0.262415843793844	0.328269020362043	0.118530846827609	1802.69840642146	0.241727220369022	0.540518496757206	0.170926956720311	5
[892] myo-inositol [19.707]	2	1803.40709341958	0.120752260793105	0.270010263570166	0.0853847424504111	7.49743297320707	6.69649787037994e-05	0.000149738244493521	4.73513905434693e-05					1803.40709341958	0.120752260793105	0.270010263570166	0.0853847424504111	5
[892] myo-inositol [19.707]	3	1803.56900681303	0.202414823052345	0.452613303998634	0.143128893992988	7.49752273084117	0.000112230217942696	0.000250954396449484	7.93587481613241e-05					1803.56900681303	0.202414823052345	0.452613303998634	0.143128893992988	5
[892] myo-inositol [19.707]	4	1803.29625048602	0.943144034896202	2.10893417460134	0.666903542710746	7.4973708350887	0.000523309036456778	0.00117015457875727	0.000370035368334786	1803.62086045646	0.874435812044389	1.14432297507836	0.450308364334494	1803.29625048602	0.943144034896202	2.10893417460134	0.666903542710746	5
[892] myo-inositol [19.707]	5	1803.2731548206	0.255310735754438	0.57089216053241	0.18053195256169	7.49735866177673	0.000141615451143034	0.000316661775420123	0.000100137245824031					1803.2731548206	0.255310735754438	0.57089216053241	0.18053195256169	5
[892] myo-inositol [19.707]	6	1803.55821690496	0.692063200833831	1.54750036179054	0.489362582319269	7.49751641169508	0.000383706449727378	0.000857993704995523	0.000271321432587244	1803.51519431618	0.772247570903093	0.956493334478198	0.341804026658538	1803.55821690496	0.692063200833831	1.54750036179054	0.489362582319269	5
[892] myo-inositol [19.707]	7	1803.25794450644	0.256406648648164	0.573342696260198	0.181306880000433	7.49735022649748	0.000142171959311139	0.000317906165514041	0.000100530756523484	1803.17620423707	0.268785325203191	0.336776089231404	0.124848334712556	1803.25794450644	0.256406648648164	0.573342696260198	0.181306880000433	5
[892] myo-inositol [19.707]	8	1804.56012867948	1.03467439602837	2.31360228409797	0.731625281751754	7.49807132368627	0.000573097890397066	0.00128148584068956	0.00040524140458347	1804.27771826753	1.07947879068115	1.35928522694072	0.503288475275077	1804.56012867948	1.03467439602837	2.31360228409797	0.731625281751754	5
[892] myo-inositol [19.707]	9	1803.99505294583	0.826101633243082	1.84721940825513	0.584142066815465	7.49775843426098	0.000457824807167827	0.001023727390613	0.000323731025743794	1803.86674183067	0.802047339637268	1.04233721108521	0.399771382039826	1803.99505294583	0.826101633243082	1.84721940825513	0.584142066815465	5
[892] myo-inositol [19.707]	10	1803.2839001681	0.155812432010977	0.348407189716109	0.11017602726813	7.49736465202482	8.64082336485578e-05	0.00019321468425386	6.10998479632469e-05					1803.2839001681	0.155812432010977	0.348407189716109	0.11017602726813	5
[892] myo-inositol [19.707]	11	1804.28118152554	1.32465684416839	2.96202275042087	0.936673837256641	7.49791620835494	0.00073343160068805	0.00164000291598496	0.000518614458383024	1803.68460859448	1.17232161436968	1.54538329402633	0.625807450776193	1804.28118152554	1.32465684416839	2.96202275042087	0.936673837256641	5
[892] myo-inositol [19.707]	12	1804.81704616686	1.35518929584071	3.03029538787991	0.958263540880391	7.49821309769349	0.000750451734654427	0.00167806109251993	0.000530649510527353	1804.47830352035	1.41378772482587	1.78262247578974	0.659568475316384	1804.81704616686	1.35518929584071	3.03029538787991	0.958263540880391	5
[892] myo-inositol [19.707]	13	1804.70672930556	0.749710732635507	1.67640416163416	0.530125542974902	7.49815294960183	0.000415196899882153	0.000928408492183668	0.000293588543434302					1804.70672930556	0.749710732635507	1.67640416163416	0.530125542974902	5
[892] myo-inositol [19.707]	14	1803.10181117106	0.722773505215789	1.6161706899983	0.511078046800055	7.4972632875634	0.000400844602522385	0.000896315779653937	0.000283439936645605	1803.10305272892	0.757374918668834	0.959839621339319	0.353020743388255	1803.10181117106	0.722773505215789	1.6161706899983	0.511078046800055	5
[892] myo-inositol [19.707]	15	1803.13966327183	0.154982642182997	0.346551723253707	0.109589277253805	7.49728466333902	8.59481666655062e-05	0.000192185943205553	6.0774531479731e-05					1803.13966327183	0.154982642182997	0.346551723253707	0.109589277253805	5
[892] myo-inositol [19.707]	16	1802.47165026707	0.999136677059849	2.23413752871908	0.706496319681213	7.4969133720049	0.000554780757907106	0.00124052748728914	0.000392289235987927	1802.973446066	0.866595439294781	1.14369267934241	0.469614964318298	1802.47165026707	0.999136677059849	2.23413752871908	0.706496319681213	5
[892] myo-inositol [19.707]	17	1803.27874853759	0.156744617146489	0.350491619046728	0.110835181698771	7.49736179499159	8.69254446186826e-05	0.000194371203141768	6.14655713475261e-05					1803.27874853759	0.156744617146489	0.350491619046728	0.110835181698771	5
[892] myo-inositol [19.707]	18	1802.1860585058	0.925295407842898	2.06902343120511	0.654282657486485	7.49675502421398	0.000513845905647924	0.0011489943749887	0.00036334392436859	1802.67382284629	0.787112894578415	1.04280527266144	0.433645814561497	1802.1860585058	0.925295407842898	2.06902343120511	0.654282657486485	5
[892] myo-inositol [19.707]	19	1804.83401488679	0.8437846613954	1.88675986125176	0.596645855933882	7.49822336213799	0.000467171240365785	0.00104462665059079	0.000330339952037977	1804.39190012125	0.71957222626301	0.952869753712392	0.395565971283505	1804.83401488679	0.8437846613954	1.88675986125176	0.596645855933882	5
[892] myo-inositol [19.707]	20	1803.28111419705	0.151815336844741	0.33946941321187	0.107349654171036	7.49736310802585	8.41916224483227e-05	0.000188258190930447	5.95324671523065e-05					1803.28111419705	0.151815336844741	0.33946941321187	0.107349654171036	5
[892] myo-inositol [19.707]	21	1803.4078137995	0.360160944168591	0.805344354001476	0.25467224594016	7.49743328419396	0.000199660924157129	0.00044645539886577	0.000141181593409479	1803.25742243312	0.344244193057715	0.442449478011711	0.171882570603629	1803.4078137995	0.360160944168591	0.805344354001476	0.25467224594016	5
[892] myo-inositol [19.707]	22	1803.41906035746	0.367874220674727	0.822591764598448	0.260126356062816	7.4974395161428	0.000203933985576943	0.000456010254672506	0.000144203104115856	1803.26391230677	0.350158415022361	0.450554337754685	0.175421789457145	1803.41906035746	0.367874220674727	0.822591764598448	0.260126356062816	5
[892] myo-inositol [19.707]	23	1803.2849179477	0.430583359132168	0.962813660999733	0.304468413108439	7.49736509249793	0.00023885160482202	0.000534088424916953	0.00016889358946694	1803.46646407341	0.383375720172905	0.505768022174012	0.204035672452764	1803.2849179477	0.430583359132168	0.962813660999733	0.304468413108439	5
[892] myo-inositol [19.707]	24	1803.5600202759	0.201955091176193	0.451585312272136	0.142803814465834	7.49751774833009	0.000111976129330497	0.000250386237040299	7.9179080380616e-05					1803.5600202759	0.201955091176193	0.451585312272136	0.142803814465834	5
[892] myo-inositol [19.707]	25	1803.70909615609	0.844702490262134	1.88881218898948	0.597294858949518	7.49759988473985	0.000468110445489899	0.00104672677709312	0.000331004070350163	1803.46277958679	0.796802137215889	1.03993699515833	0.405142512534756	1803.70909615609	0.844702490262134	1.88881218898948	0.597294858949518	5
[892] myo-inositol [19.707]	26	1803.55701125695	0.336971353183441	0.753490852188264	0.238274728901618	7.4975160240486	0.000186803259839581	0.00041770478741986	0.000132089851780321	1803.4564465039	0.331687333268579	0.426135779749219	0.161811993289181	1803.55701125695	0.336971353183441	0.753490852188264	0.238274728901618	5
[892] myo-inositol [19.707]	27	1803.57103009568	0.00414298342226163	0.00926399256183173	0.00292953167222465	7.49752388413798	2.2971005628336e-06	5.13647300964897e-06	1.62429538504708e-06					1803.57103009568	0.00414298342226163	0.00926399256183173	0.00292953167222465	5
[892] myo-inositol [19.707]	28	1803.84099521002	0.321814718626971	0.719599587009875	0.227557369826772	7.49767347704534	0.00017839530605236	0.000398904031199957	0.000126144530641473	1803.80558879197	0.337242378648769	0.426817680177424	0.157155443678144	1803.84099521002	0.321814718626971	0.719599587009875	0.227557369826772	5
[892] myo-inositol [19.707]	29	1803.53853066092	0.509753842591287	1.13984424382584	0.360450398832199	7.49750566483976	0.000282579110969575	0.000631866101149426	0.000199813605588252	1803.41756183845	0.500004573489992	0.64534756932961	0.245713221976622	1803.53853066092	0.509753842591287	1.13984424382584	0.360450398832199	5
[892] myo-inositol [19.707]	30	1804.56690606257	1.22294521471353	2.73458863285754	0.864752854343578	7.49807475424246	0.000676950507801173	0.00151370735284642	0.000478676294593886	1803.89818806061	1.02439438083809	1.36099987760272	0.572132159710107	1804.56690606257	1.22294521471353	2.73458863285754	0.864752854343578	5
[892] myo-inositol [19.707]	31	1804.77484328202	0.727006034527792	1.6256349132567	0.514070896978143	7.49819071696482	0.00040266737342483	0.000900391619299212	0.000284728830311273	1804.53569835215	0.757186160822027	0.950239228887096	0.353461494419457	1804.77484328202	0.727006034527792	1.6256349132567	0.514070896978143	5
[892] myo-inositol [19.707]	32	1802.15888059362	0.776342468858588	1.73595453418782	0.548957024253014	7.49674013894948	0.00043108018331367	0.000963924593642436	0.000304819720856236	1802.57238973924	0.654725839231499	0.869502706034386	0.363697185861449	1802.15888059362	0.776342468858588	1.73595453418782	0.548957024253014	5
[892] myo-inositol [19.707]	33	1804.28331387396	0.808601342604632	1.80808756876155	0.571767492632282	7.49791823425567	0.000447840184988904	0.00100140109669127	0.000316670831693492	1803.85680982147	0.684067493969223	0.908091787785779	0.378998969405053	1804.28331387396	0.808601342604632	1.80808756876155	0.571767492632282	5
[892] myo-inositol [19.707]	34	1803.1141375823	0.322327644623893	0.72074652440642	0.227920063277442	7.49727044557438	0.000178756335642973	0.000399711317906455	0.000126399817113204	1803.09249161208	0.34188684147309	0.43116952758917	0.157733284406688	1803.1141375823	0.322327644623893	0.72074652440642	0.227920063277442	5
[892] myo-inositol [19.707]	35	1803.4338494089	0.680478100399001	1.52159528969209	0.481170679241074	7.49744746500419	0.000377105636306059	0.000843233837478662	0.000266653952655683	1803.08732379371	0.58170916459312	0.77117182285219	0.319527009455264	1803.4338494089	0.680478100399001	1.52159528969209	0.481170679241074	5
[892] myo-inositol [19.707]	36	1803.43081243717	0.236471335879777	0.528765981757366	0.167210485156832	7.49744609368728	0.00013111618181278	0.000293184695483599	9.27131412831053e-05	1803.40646608818	0.253991854742996	0.318784713958617	0.115669662749452	1803.43081243717	0.236471335879777	0.528765981757366	0.167210485156832	5
[892] myo-inositol [19.707]	37	1803.16855954589	1.41576331244359	3.16574300667413	1.00109583878399	7.49729916681157	0.000784861610171922	0.00175500391327436	0.000554980966845559	1802.96046472677	1.37347491890558	1.7859589447657	0.685213677669862	1803.16855954589	1.41576331244359	3.16574300667413	1.00109583878399	5
[892] myo-inositol [19.707]	38	1803.26696182223	0.253683420704263	0.56725337345941	0.179381267054584	7.49735522809801	0.000140712967395902	0.000314643760412949	9.9499093446524e-05	1803.41073971967	0.209103412423342	0.278601057166432	0.118485154424654	1803.26696182223	0.253683420704263	0.56725337345941	0.179381267054584	5
[892] myo-inositol [19.707]	39	1803.42448608056	0.128874059966683	0.288171158621887	0.091127721721483	7.49744261593626	7.14692960188361e-05	0.000159810204202173	5.05364238615477e-05					1803.42448608056	0.128874059966683	0.288171158621887	0.091127721721483	5
[892] myo-inositol [19.707]	40	1804.09694815559	0.448426866226846	1.00271295582043	0.317085677975236	7.49781528540274	0.000248539829615789	0.00055575195413712	0.000175744198916274	1804.03507935143	0.503036909626808	0.620798937929874	0.221852006569945	1804.09694815559	0.448426866226846	1.00271295582043	0.317085677975236	5
[892] myo-inositol [19.707]	41	1803.42425017084	0.128388340015511	0.287085055793038	0.0907842658502517	7.49744248522024	7.11999119046503e-05	0.000159207843010795	5.0345940527663e-05					1803.42425017084	0.128388340015511	0.287085055793038	0.0907842658502517	5
[892] myo-inositol [19.707]	42	1803.81822655799	0.625460990403903	1.39857329181747	0.442267707682254	7.49766063373541	0.000346658420995821	0.000775151794319397	0.000245124520241566	1803.68069656261	0.637772568702846	0.812264834625432	0.303142219870619	1803.81822655799	0.625460990403903	1.39857329181747	0.442267707682254	5
[892] myo-inositol [19.707]	43	1803.27390798254	0.155084451329426	0.346779375425854	0.109661267191632	7.49735911107821	8.60049771992242e-05	0.000192312975420785	6.08147025933658e-05					1803.27390798254	0.155084451329426	0.346779375425854	0.109661267191632	5
[892] myo-inositol [19.707]	44	1804.23596361913	0.871194258429779	1.94804958345651	0.616027367866483	7.49789190972417	0.000482668809109434	0.00107928026778756	0.000341298387988516	1804.00280550366	0.89308282336019	1.13224090061978	0.42231042228544	1804.23596361913	0.871194258429779	1.94804958345651	0.616027367866483	5
[892] myo-inositol [19.707]	45	1803.262942813	0.261805326536265	0.585414507006617	0.185124321744551	7.49735299613709	0.000145219544710944	0.00032472077363524	0.000102685724825931					1803.262942813	0.261805326536265	0.585414507006617	0.185124321744551	5
[892] myo-inositol [19.707]	46	1803.1382499149	0.154545309960391	0.345573818675211	0.10928003667357	7.49728387961167	8.57057300079821e-05	0.000191643838359092	6.06031028751875e-05					1803.1382499149	0.154545309960391	0.345573818675211	0.10928003667357	5
[892] myo-inositol [19.707]	47	1804.28459473831	0.836926698732004	1.87142499054925	0.591796544029471	7.49791890834411	0.000463562464687524	0.00103655718285865	0.000327788162284098	1803.91212601423	0.763683478535151	0.995907616567635	0.396197900253092	1804.28459473831	0.836926698732004	1.87142499054925	0.591796544029471	5
[892] myo-inositol [19.707]	48	1801.89793141514	0.918657254221345	2.05418006846223	0.649588774046127	7.49659514440659	0.00051012946901094	0.00114068417003433	0.000360716006820729	1802.2462542948	0.894810752412635	1.1463838940698	0.440136878146049	1801.89793141514	0.918657254221345	2.05418006846223	0.649588774046127	5
[892] myo-inositol [19.707]	49	1803.83071768125	0.261258698546465	0.584192209663021	0.184737797386177	7.49766780658759	0.000144800648656239	0.000323784093581415	0.000102389520585038	1803.6836143814	0.215916011044973	0.287568777561935	0.122059298069614	1803.83071768125	0.261258698546465	0.584192209663021	0.184737797386177	5
[892] myo-inositol [19.707]	50	1802.48155216618	1.30078772883161	2.90864978596504	0.919795823941078	7.49691833178517	0.000721972228439259	0.00161437898065719	0.000510511458557764	1802.71766692856	1.26218743656466	1.63924695295165	0.628710292247639	1802.48155216618	1.30078772883161	2.90864978596504	0.919795823941078	5
[892] myo-inositol [19.707]	51	1803.13509145008	0.25437158917665	0.568792164943638	0.179867875648008	7.49728209656362	0.000141090520017301	0.00031548799373948	9.97660634653697e-05	1803.21687114903	0.266699484109745	0.334071071162041	0.123862703495863	1803.13509145008	0.25437158917665	0.568792164943638	0.179867875648008	5
[892] myo-inositol [19.707]	52	1803.27823694817	0.323198501879538	0.72269382042874	0.228535852348354	7.49736144986879	0.000179238029060785	0.000400788417132999	0.000126740425795393	1803.31310803756	0.340737059361578	0.43032760501359	0.157978955092075	1803.27823694817	0.323198501879538	0.72269382042874	0.228535852348354	5
[892] myo-inositol [19.707]	53	1803.12204229086	0.390980107787131	0.874258098862219	0.276464685525327	7.49727479182258	0.000216841931868232	0.000484873300029745	0.000153330400469618	1803.15513934599	0.445621548871153	0.547583431117689	0.194057571099863	1803.12204229086	0.390980107787131	0.874258098862219	0.276464685525327	5
[892] myo-inositol [19.707]	54	1803.28529166351	0.258011411067613	0.576931054117823	0.182441618389419	7.49736539114017	0.000143112863533255	0.00032001009131501	0.00010119607627939					1803.28529166351	0.258011411067613	0.576931054117823	0.182441618389419	5
[892] myo-inositol [19.707]	55	1803.81607366093	0.626296837718744	1.40044230323227	0.442858740986615	7.49765943940849	0.000347121817402215	0.000776187980184622	0.000245452190982905	1803.6778908554	0.639460400754728	0.813998894058072	0.303598327465728	1803.81607366093	0.626296837718744	1.40044230323227	0.442858740986615	5
[892] myo-inositol [19.707]	56	1803.12259799127	0.506317381097335	1.13216008232331	0.358020453606539	7.49727502044929	0.000280787167847235	0.00062785919451606	0.000198546510454945	1803.09402152878	0.509473788655838	0.654938877574249	0.246190473207269	1803.12259799127	0.506317381097335	1.13216008232331	0.358020453606539	5
[892] myo-inositol [19.707]	57	1802.18223642506	0.925249273941145	2.06892027266473	0.654250035891713	7.49675290347087	0.000513822148850799	0.0011489412531754	0.000363327125776243	1802.67113811022	0.786319862815436	1.04193722716538	0.433573782043946	1802.18223642506	0.925249273941145	2.06892027266473	0.654250035891713	5
[892] myo-inositol [19.707]	58	1803.42031152068	0.130781755509862	0.292436895536809	0.0924766661765046	7.49744030075662	7.25275352423422e-05	0.000162176499042389	5.12847119926065e-05					1803.42031152068	0.130781755509862	0.292436895536809	0.0924766661765046	5
[892] myo-inositol [19.707]	59	1803.85371502351	0.156759604816259	0.350525132495159	0.1108457795817	7.49768058922241	8.68991739411872e-05	0.000194312460121073	6.14469951733228e-05					1803.85371502351	0.156759604816259	0.350525132495159	0.1108457795817	5
[892] myo-inositol [19.707]	60	1804.56332088031	0.915209932585346	2.04647162294383	0.647151149540381	7.49807327161224	0.000506783556657026	0.00113320248256423	0.00035835008950602	1804.11477355959	0.80072592018743	1.05499955172306	0.430760966984103	1804.56332088031	0.915209932585346	2.04647162294383	0.647151149540381	5
[892] myo-inositol [19.707]	61	1803.13672191809	0.156460760802665	0.349856896966093	0.110634464953171	7.49728303174357	8.67679973978468e-05	0.00019401914045311	6.13542393499942e-05					1803.13672191809	0.156460760802665	0.349856896966093	0.110634464953171	5
[892] myo-inositol [19.707]	62	1803.71121899416	0.238457161560237	0.53320642297034	0.16861467596174	7.49760156594854	0.000132209923087703	0.000295630375324124	9.3486533155467e-05	1803.73254575426	0.257396468168215	0.322565886847585	0.116772317253588	1803.71121899416	0.238457161560237	0.53320642297034	0.16861467596174	5
[892] myo-inositol [19.707]	63	1803.53695992335	0.469473942103119	1.04977564820738	0.331968208051496	7.49750482426053	0.000260210155359736	0.00058184759582015	0.000183996365388474	1803.31386918141	0.423480447292436	0.552613255543258	0.221745743409499	1803.53695992335	0.469473942103119	1.04977564820738	0.331968208051496	5
[892] myo-inositol [19.707]	64	1803.28068010933	0.618766921587536	1.38360489889801	0.437534286228471	7.49736259054032	0.000343249598706417	0.000767529435957072	0.000242714118884869	1803.47185185824	0.571259920454453	0.750605549337336	0.296302028817834	1803.28068010933	0.618766921587536	1.38360489889801	0.437534286228471	5
[892] myo-inositol [19.707]	65	1803.4079275964	0.125013056052243	0.279537691407807	0.0883975796713951	7.4974334349578	6.93285028291137e-05	0.000155023245104185	4.90226544799771e-05					1803.4079275964	0.125013056052243	0.279537691407807	0.0883975796713951	5
[892] myo-inositol [19.707]	66	1803.14336590028	0.156055665502996	0.348951076338668	0.110348019319748	7.49728671651447	8.65430231148221e-05	0.000193516082663078	6.11951585088748e-05					1803.14336590028	0.156055665502996	0.348951076338668	0.110348019319748	5
[892] myo-inositol [19.707]	67	1804.2627717367	0.341910209514536	0.764534470675699	0.241767027704642	7.49790726086782	0.000189466988911059	0.000423661066697327	0.000133973392670006	1804.16227636982	0.337271458187587	0.433098448590478	0.164255905923652	1804.2627717367	0.341910209514536	0.764534470675699	0.241767027704642	5
[892] myo-inositol [19.707]	68	1802.70296856484	0.372210354760908	0.832287655174702	0.263192465879288	7.49704236014997	0.000206489475989463	0.000461724504950749	0.000146010108715806					1802.70296856484	0.372210354760908	0.832287655174702	0.263192465879288	5
[892] myo-inositol [19.707]	69	1803.42400582531	0.367253252668403	0.821203237924455	0.259687265374644	7.49744225876334	0.000203589627416669	0.000455240246417528	0.00014395960612557	1803.27011998087	0.350481423906191	0.450658231014868	0.175214751346269	1803.42400582531	0.367253252668403	0.821203237924455	0.259687265374644	5
[892] myo-inositol [19.707]	70	1803.4104474652	0.127028536974148	0.28404444375654	0.0898227398986261	7.49743483184793	7.04462522892566e-05	0.000157522608878878	4.98130227029117e-05					1803.4104474652	0.127028536974148	0.28404444375654	0.0898227398986261	5
[892] myo-inositol [19.707]	71	1803.41601796252	0.310472548485945	0.694237723562173	0.219537244406681	7.4974378590047	0.000172186739012134	0.000385021253255147	0.000121754410785878					1803.41601796252	0.310472548485945	0.694237723562173	0.219537244406681	5
[892] myo-inositol [19.707]	72	1803.28327402225	0.254876755364773	0.569921750880217	0.180225082085256	7.49736427353119	0.000141321172950787	0.000316003749377964	9.99291597187384e-05	1803.19962109168	0.265585230771922	0.333260547356615	0.123929900379653	1803.28327402225	0.254876755364773	0.569921750880217	0.180225082085256	5
[892] myo-inositol [19.707]	73	1803.14395126579	0.15732172596975	0.351782073605956	0.111243259261182	7.49728704084552	8.72451000834995e-05	0.000195085974490477	6.16916018943415e-05					1803.14395126579	0.15732172596975	0.351782073605956	0.111243259261182	5
[892] myo-inositol [19.707]	74	1803.82001187842	0.409144504124256	0.91487492384228	0.289308853351469	7.49766179538929	0.000226755220444637	0.000507040087167158	0.000160340154045853					1803.82001187842	0.409144504124256	0.91487492384228	0.289308853351469	5
[892] myo-inositol [19.707]	75	1802.46552144716	1.12654773892446	2.51903732413378	0.796589545523857	7.49690976288365	0.00062564372690673	0.00139898190305976	0.000442396921902573	1803.08691659734	0.938593090364223	1.24856876927709	0.526826837912825	1802.46552144716	1.12654773892446	2.51903732413378	0.796589545523857	5
[892] myo-inositol [19.707]	76	1803.28149498456	0.323331177505126	0.722990492146513	0.228629668182906	7.49736325653184	0.000179310249028421	0.000400949905889965	0.000126791493024245	1803.31349036569	0.342409621418152	0.43182707669462	0.15816656664751	1803.28149498456	0.323331177505126	0.722990492146513	0.228629668182906	5
[892] myo-inositol [19.707]	77	1802.86064399838	0.351035719986232	0.784939732419796	0.248219738040967	7.4971298342281	0.000194749678859859	0.000435473520526899	0.000137708818555709	1802.973454706	0.341319750677809	0.439786558737802	0.168158045534032	1802.86064399838	0.351035719986232	0.784939732419796	0.248219738040967	5
[892] myo-inositol [19.707]	78	1803.56063952957	0.350408883258638	0.783538082886102	0.247776497540188	7.49751802863366	0.000194325603327369	0.000434525258808656	0.00013740895187095	1803.67067942218	0.342043216784352	0.440318904386162	0.167986689155421	1803.56063952957	0.350408883258638	0.783538082886102	0.247776497540188	5
[892] myo-inositol [19.707]	79	1803.28806679885	0.158470133039801	0.35434998988043	0.112055305687977	7.49736696195949	8.78819861294216e-05	0.00019651009498308	6.21419483362561e-05					1803.28806679885	0.158470133039801	0.35434998988043	0.112055305687977	5
[892] myo-inositol [19.707]	80	1802.8525306014	0.40000573879065	0.894440023325919	0.282846770412404	7.49712530563916	0.000221906256695606	0.000496197474603892	0.000156911418897186	1802.95216990786	0.448130897652547	0.55057361149434	0.19800787330635	1802.8525306014	0.40000573879065	0.894440023325919	0.282846770412404	5
[892] myo-inositol [19.707]	81	1803.86139619531	1.09503712632921	2.44857745235813	0.774308177678411	7.49768394600478	0.00060656207324434	0.00135631402834755	0.000428904155201644	1803.38780928371	0.980742662143044	1.28956900250095	0.518457222568022	1803.86139619531	1.09503712632921	2.44857745235813	0.774308177678411	5
[892] myo-inositol [19.707]	82	1801.89930034484	0.874820153867238	1.95615733213397	0.618591263118183	7.49659596461524	0.000485843056208198	0.00108637810007778	0.000343542919637214	1802.31964461967	0.770477649517782	1.01385973991762	0.412205388728164	1801.89930034484	0.874820153867238	1.95615733213397	0.618591263118183	5
[892] myo-inositol [19.707]	83	1802.85350576477	0.489106313153246	1.09367496443496	0.345850390751811	7.49712578553371	0.000271401999524187	0.000606873320165447	0.000191910194291141	1803.08727741288	0.43994650980454	0.574512758992698	0.230914721534763	1802.85350576477	0.489106313153246	1.09367496443496	0.345850390751811	5
[892] myo-inositol [19.707]	84	1804.83597755784	1.17282679185525	2.62252043242134	0.829313777678111	7.49822394121537	0.000649170498494697	0.00145158936362157	0.000459032861631852	1804.228881871	1.00586347421596	1.33029660320053	0.550323649805012	1804.83597755784	1.17282679185525	2.62252043242134	0.829313777678111	5
[892] myo-inositol [19.707]	85	1802.86140392483	0.347825288742376	0.777760989921446	0.245949620337903	7.49713025746611	0.000192967921891529	0.000431489390826328	0.000136448926120976	1802.97247879809	0.338503371289945	0.436076234294838	0.166654068699088	1802.86140392483	0.347825288742376	0.777760989921446	0.245949620337903	5
[892] myo-inositol [19.707]	86	1803.98215741642	0.712637639444005	1.59350620512178	0.50391090737963	7.49775142018459	0.00039479915608809	0.000882797750472519	0.000279165160476615	1803.62353487207	0.617247523194224	0.814987310708249	0.334760014644457	1803.98215741642	0.712637639444005	1.59350620512178	0.50391090737963	5
[892] myo-inositol [19.707]	87	1802.74834555081	1.12012865755884	2.50468382184715	0.792050569561239	7.4970666720281	0.000621759243618459	0.00139029593436973	0.000439650177428031	1803.12893250816	1.03654265368044	1.35780107835692	0.535153037246001	1802.74834555081	1.12012865755884	2.50468382184715	0.792050569561239	5
[892] myo-inositol [19.707]	88	1804.48972509945	0.829313230736015	1.8544007585657	0.58641300918116	7.49803260223946	0.000459415016080678	0.00102728320584056	0.000324855473249574	1804.26229695875	0.88544035944421	1.10547844117828	0.405432144832087	1804.48972509945	0.829313230736015	1.8544007585657	0.58641300918116	5
[892] myo-inositol [19.707]	89	1803.14271103333	0.257889219696199	0.576657825905078	0.182355216042089	7.49728632091089	0.000143041393109067	0.000319850278588144	0.000101145539057792	1803.2260426118	0.270043437982017	0.338377051530586	0.125539316909375	1803.14271103333	0.257889219696199	0.576657825905078	0.182355216042089	5
[892] myo-inositol [19.707]	90	1802.99565151343	0.126949161811111	0.283866955496264	0.0897666131825846	7.4972047990022	7.04018259219045e-05	0.000157423268501485	4.97816085172936e-05					1802.99565151343	0.126949161811111	0.283866955496264	0.0897666131825846	5
[892] myo-inositol [19.707]	91	1804.13667287651	0.869788543447188	1.94490630919844	0.615033377269876	7.49783687819709	0.000481799045524696	0.00107733541728774	0.000340683372259719	1803.76104040407	0.771269683552439	1.01797029194183	0.411724696001092	1804.13667287651	0.869788543447188	1.94490630919844	0.615033377269876	5
[892] myo-inositol [19.707]	92	1804.56448993959	1.22332223276037	2.735431670839	0.865019446361123	7.49807341463962	0.000677159366719223	0.00151417437558489	0.00047882398015115	1803.89498723353	1.02431840934493	1.36099115062903	0.572283156785846	1804.56448993959	1.22332223276037	2.735431670839	0.865019446361123	5
[892] myo-inositol [19.707]	93	1803.13087270486	0.550006176593089	1.2298511989069	0.388913097163459	7.49727957390757	0.000305163265911855	0.000682365806814752	0.000215783014695306	1803.39250673183	0.478360266518443	0.632806285123883	0.259162356902308	1803.13087270486	0.550006176593089	1.2298511989069	0.388913097163459	5
[892] myo-inositol [19.707]	94	1804.82058440145	0.927612797570883	2.07420527216725	0.655921299477796	7.49821580667044	0.000513692586104585	0.00114865154206752	0.000363235511079807	1804.50410768876	0.934119651134068	1.18582184208746	0.447723402516991	1804.82058440145	0.927612797570883	2.07420527216725	0.655921299477796	5
[892] myo-inositol [19.707]	95	1802.99186551084	0.370814756375534	0.829167002315719	0.262205628797178	7.49720260576781	0.000205721009039428	0.00046000616061201	0.000145466720524319	1803.14990193589	0.351346537631717	0.452644658425632	0.176669049147109	1802.99186551084	0.370814756375534	0.829167002315719	0.262205628797178	5
[892] myo-inositol [19.707]	96	1802.44991407238	0.973222918046398	2.17619260201245	0.688172524956768	7.49690135211933	0.000540433975076574	0.00120844710562165	0.000382144528560247	1803.00407602895	0.800352811410958	1.0668072318391	0.45447095175633	1802.44991407238	0.973222918046398	2.17619260201245	0.688172524956768	5
[892] myo-inositol [19.707]	97	1801.62411118465	0.988424375090011	2.21018409331901	0.698921578316222	7.49644306785776	0.000549022340840518	0.00122765127528546	0.000388217420231242	1802.04538730793	0.919882583375437	1.19310618375869	0.469714489664607	1801.62411118465	0.988424375090011	2.21018409331901	0.698921578316222	5
[892] myo-inositol [19.707]	98	1802.8583575562	0.347157916930069	0.77626870118286	0.245477717203848	7.4971285680804	0.000192597881213858	0.000430661954716616	0.00013618726784848	1802.96904518801	0.337978597757376	0.435357549323513	0.166342617018187	1802.8583575562	0.347157916930069	0.77626870118286	0.245477717203848	5
[892] myo-inositol [19.707]	99	1802.62868724326	1.20476431690979	2.69393490947639	0.851897018218491	7.49700014228348	0.000668963395889429	0.00149584762766787	0.000473028553598996	1803.17940077104	1.07849171981121	1.41458508116412	0.569047821263755	1802.62868724326	1.20476431690979	2.69393490947639	0.851897018218491	5
[892] myo-inositol [19.707]	100	1802.98207063889	0.548507868477904	1.22650088011011	0.387853633334905	7.49719704763509	0.000304180968677899	0.000680169323425516	0.000215088425660035	1802.90545874301	0.577767374908145	0.729464867844991	0.267625080055127	1802.98207063889	0.548507868477904	1.22650088011011	0.387853633334905	5
[892] myo-inositol [19.707]	1	1803.20465525608	0.284034294687851	0.695739091436545	0.200842575863318	7.49732065051072	0.000157517933875677	0.00038583856333287	0.000111381999201985	1803.20947839363	0.297763193007189	0.412553544205501	0.137877309089881	1803.20465525608	0.284034294687851	0.695739091436545	0.200842575863318	6
[892] myo-inositol [19.707]	2	1803.33037716872	0.13686335093721	0.335245374283631	0.0967770035436157	7.49739042661153	7.58997631091063e-05	0.000185915691215429	5.36692371849016e-05	1803.38055666034	0.150853157765912	0.203534476148349	0.0687501440579135	1803.33037716872	0.13686335093721	0.335245374283631	0.0967770035436157	6
[892] myo-inositol [19.707]	3	1803.20551270522	0.143517489195764	0.35154461769502	0.101482189829192	7.49732118145607	7.95901976166987e-05	0.00019495537268819	5.62787684507451e-05					1803.20551270522	0.143517489195764	0.35154461769502	0.101482189829192	6
[892] myo-inositol [19.707]	4	1803.32593292842	0.133555443433363	0.327142688782882	0.0944379597161075	7.49738796297112	7.40653575282952e-05	0.000181422333561128	5.23721165592637e-05	1803.37470355778	0.147214555255059	0.198642486667434	0.0670791872842502	1803.32593292842	0.133555443433363	0.327142688782882	0.0944379597161075	6
[892] myo-inositol [19.707]	5	1802.96629329737	0.203503980923884	0.498480913888597	0.143899044909736	7.49718849001865	0.00011287593680417	0.000276488449408857	7.98153403470129e-05	1802.97606370453	0.210274823379364	0.293218584311102	0.0990418067323656	1802.96629329737	0.203503980923884	0.498480913888597	0.143899044909736	6
[892] myo-inositol [19.707]	6	1803.44901243405	0.198040940766287	0.485099253058151	0.140036092168405	7.49745619231626	0.000109808212428589	0.000268974090017186	7.76461316382284e-05	1803.43855593967	0.204383170420128	0.28510032590698	0.0963321525822704	1803.44901243405	0.198040940766287	0.485099253058151	0.140036092168405	6
[892] myo-inositol [19.707]	7	1803.52674751767	0.506262073114348	1.24008375525374	0.357981344956715	7.49749909491859	0.000280546769001508	0.000687196433040156	0.000198376522800942					1803.52674751767	0.506262073114348	1.24008375525374	0.357981344956715	6
[892] myo-inositol [19.707]	8	1803.23670620265	1.20231392353625	2.94505562330745	0.850164328447489	7.4973371642902	0.000667223710948386	0.0016343576361098	0.000471798410580057	1803.58022171586	1.08976472420588	1.57694251480352	0.565055884757203	1803.23670620265	1.20231392353625	2.94505562330745	0.850164328447489	6
[892] myo-inositol [19.707]	9	1803.20637673689	0.143179031621305	0.350715569338015	0.101242864183148	7.49732166070978	7.94024583721405e-05	0.000194495507334326	5.61460167578231e-05					1803.20637673689	0.143179031621305	0.350715569338015	0.101242864183148	6
[892] myo-inositol [19.707]	10	1802.72310353269	0.313562830587131	0.768068937241237	0.221722403836209	7.49705354522199	0.000173955642803928	0.000426102562747475	0.000123005214652322					1802.72310353269	0.313562830587131	0.768068937241237	0.221722403836209	6
[892] myo-inositol [19.707]	11	1802.98346828568	0.669052169288392	1.63883642605875	0.473091325871392	7.49719764063251	0.00037136505336089	0.000909654889035627	0.000262594747527189	1803.38990532245	0.504166267988607	0.755221319328198	0.294471670479821	1802.98346828568	0.669052169288392	1.63883642605875	0.473091325871392	6
[892] myo-inositol [19.707]	12	1804.4936035737	0.639045875808022	1.56533631795964	0.451873672273149	7.49803490321712	0.000354072685320846	0.000867297410893108	0.000250367196823301	1804.39087541484	0.696184651385084	0.949931407827693	0.311936620858289	1804.4936035737	0.639045875808022	1.56533631795964	0.451873672273149	6
[892] myo-inositol [19.707]	13	1803.5663104898	0.675949876133414	1.65573228822436	0.477968741156144	7.49752084633954	0.000374521448073425	0.000917386445508158	0.000264826655632524					1803.5663104898	0.675949876133414	1.65573228822436	0.477968741156144	6
[892] myo-inositol [19.707]	14	1803.64733065374	0.512524957683246	1.25542462676549	0.362409873105171	7.49756594643055	0.000284031678472479	0.000695732683043826	0.000200840725919687	1803.39409376091	0.471060676910879	0.66782839952266	0.239186369806843	1803.64733065374	0.512524957683246	1.25542462676549	0.362409873105171	6
[892] myo-inositol [19.707]	15	1803.22244313994	0.840049541962518	2.05769273646689	0.59400472765435	7.49732993817952	0.000465986755398694	0.00114142977762191	0.000329502394685534	1803.354550937	0.758243117975612	1.10411633720811	0.399043461127143	1803.22244313994	0.840049541962518	2.05769273646689	0.59400472765435	6
[892] myo-inositol [19.707]	16	1802.85309612587	0.443830973607581	1.08715941738124	0.313835891138548	7.49712556057787	0.000246203678979602	0.000603073386296017	0.000174092290959552					1802.85309612587	0.443830973607581	1.08715941738124	0.313835891138548	6
[892] myo-inositol [19.707]	17	1803.44209620784	0.194597521494646	0.476664632872163	0.137601227050959	7.49745235855524	0.000107901271529925	0.000264303057845813	7.62977207974607e-05	1803.44156335903	0.203625805954178	0.282810757433318	0.0951232492291945	1803.44209620784	0.194597521494646	0.476664632872163	0.137601227050959	6
[892] myo-inositol [19.707]	18	1802.852474146	0.288909607386176	0.707681119883954	0.204289942532708	7.49712532035712	0.000160282567235588	0.000392610504390528	0.000113336890198273	1802.94554881154	0.267948251423468	0.384051878526828	0.135409428734642	1802.852474146	0.288909607386176	0.707681119883954	0.204289942532708	6
[892] myo-inositol [19.707]	19	1803.31930368379	0.137320091433021	0.336364155443234	0.0970999678454462	7.49738428590221	7.61535196096664e-05	0.000186537265160715	5.38486701272178e-05	1803.36941096437	0.151349396039338	0.204230497785333	0.0689649466443492	1803.31930368379	0.137320091433021	0.336364155443234	0.0970999678454462	6
[892] myo-inositol [19.707]	20	1803.3276642375	0.939253721382255	2.30069235639676	0.664152675644092	7.49738812497341	0.000521171277956981	0.00127660369958882	0.00036852374480304	1803.64229718952	0.847744585634136	1.22499427099064	0.439457603123598	1803.3276642375	0.939253721382255	2.30069235639676	0.664152675644092	6
[892] myo-inositol [19.707]	21	1802.49615235552	0.32437146290089	0.794544571227305	0.22936526104062	7.49692763737798	0.000179970648205628	0.000440836256781726	0.000127258465760738	1802.56058331994	0.353318945573804	0.482668149948214	0.161083892065198	1802.49615235552	0.32437146290089	0.794544571227305	0.22936526104062	6
[892] myo-inositol [19.707]	22	1803.32004142617	0.133892513220604	0.327968337769331	0.0946763040483988	7.49738469586229	7.42525561387259e-05	0.000181880874637241	5.25044859661279e-05	1803.36911530802	0.147575335972591	0.199115178190274	0.0672560430609281	1803.32004142617	0.133892513220604	0.327968337769331	0.0946763040483988	6
[892] myo-inositol [19.707]	23	1804.16543997387	1.12158453708516	2.74730981925432	0.793080031846891	7.49785224596181	0.000621004467575196	0.00152114407354797	0.000439116470169563	1803.61570823354	0.940604267392312	1.37689118182256	0.509347773045934	1804.16543997387	1.12158453708516	2.74730981925432	0.793080031846891	6
[892] myo-inositol [19.707]	24	1803.14158226288	1.49841060700473	3.6703414123356	1.05953630121489	7.49728367566384	0.000830612153348938	0.00203457594985927	0.000587331486168994	1802.91354876701	1.35000005456008	1.96731379558208	0.711742306456868	1803.14158226288	1.49841060700473	3.6703414123356	1.05953630121489	6
[892] myo-inositol [19.707]	25	1804.15561820275	0.830840503570684	2.0351352913852	0.587492954159277	7.49784732426157	0.000460124253466387	0.00112706963927168	0.00032535697981448	1803.71564698421	0.658179769446678	0.978694244013331	0.372558140446217	1804.15561820275	0.830840503570684	2.0351352913852	0.587492954159277	6
[892] myo-inositol [19.707]	26	1802.97765579716	0.31153327977466	0.763097573343632	0.220287294693948	7.4971947407382	0.000172831114788153	0.000423348042907363	0.000122210053266734	1803.10519378269	0.290237147503743	0.412491383235054	0.144883596362373	1802.97765579716	0.31153327977466	0.763097573343632	0.220287294693948	6
[892] myo-inositol [19.707]	27	1802.83891360872	0.171082348319892	0.419064457380835	0.120973488638315	7.49711784866162	9.48982254377969e-05	0.000232452229818209	6.71031787296359e-05					1802.83891360872	0.171082348319892	0.419064457380835	0.120973488638315	6
[892] myo-inositol [19.707]	28	1803.65381436951	0.41095499916981	1.00663005521192	0.290589066675485	7.49756962758707	0.000227814155340358	0.00055802843676702	0.000161088934091452	1803.58652345336	0.36346347839605	0.532875161393303	0.194851411620079	1803.65381436951	0.41095499916981	1.00663005521192	0.290589066675485	6
[892] myo-inositol [19.707]	29	1803.08858624581	0.1358712753754	0.33281529537091	0.09607550018641	7.497256337656	7.53498291668714e-05	0.000184568633664716	5.32803751651427e-05	1803.03880265621	0.14976247522787	0.202063791338553	0.068249811606859	1803.08858624581	0.1358712753754	0.33281529537091	0.09607550018641	6
[892] myo-inositol [19.707]	30	1803.43536624218	0.448598963397969	1.09883855946649	0.31720736905196	7.49744847619622	0.000248668304835863	0.000609110462050727	0.000175835044615602	1803.27622361577	0.412137234322891	0.591069008134129	0.209556265203285	1803.43536624218	0.448598963397969	1.09883855946649	0.31720736905196	6
[892] myo-inositol [19.707]	31	1803.89421872474	0.69590740700948	1.70461805539656	0.49208084657435	7.49770261581545	0.000385480732091386	0.000944231099298401	0.000272576039678574	1803.48125704139	0.540731825315607	0.802882141783145	0.307793298394844	1803.89421872474	0.69590740700948	1.70461805539656	0.49208084657435	6
[892] myo-inositol [19.707]	32	1802.37361064431	0.583567279479548	1.42944206530904	0.412644380598574	7.49685943305701	0.000323952744677752	0.000793518925234611	0.000229069182545632	1802.65651943858	0.506439962612345	0.733024474652794	0.266833522666271	1802.37361064431	0.583567279479548	1.42944206530904	0.412644380598574	6
[892] myo-inositol [19.707]	33	1803.20604156134	0.366190759482321	0.896980509253926	0.258935969237801	7.49732136998295	0.000203129297232172	0.000497563130028961	0.000143634103530527	1803.34103228381	0.340844274610447	0.48634386462323	0.172320491601974	1803.20604156134	0.366190759482321	0.896980509253926	0.258935969237801	6
[892] myo-inositol [19.707]	34	1803.57941189977	1.00167270994398	2.45358702863361	0.708289565730894	7.49752760617919	0.000555361141654511	0.00136035142002308	0.000392699629271407	1803.56164453165	0.894570752318149	1.31005634561382	0.477702078191501	1803.57941189977	1.00167270994398	2.45358702863361	0.708289565730894	6
[892] myo-inositol [19.707]	35	1803.31498861951	0.362950440478494	0.889043381090707	0.256644717696987	7.49738178886887	0.000201337305942314	0.000493173665745298	0.000142366974337641					1803.31498861951	0.362950440478494	0.889043381090707	0.256644717696987	6
[892] myo-inositol [19.707]	36	1803.08712009276	0.225065692561885	0.551296105382729	0.159145477422955	7.49725549480664	0.000124835273466512	0.000305782721893753	8.82718683994475e-05	1803.14038255237	0.238484674120222	0.327471729029004	0.108647898906399	1803.08712009276	0.225065692561885	0.551296105382729	0.159145477422955	6
[892] myo-inositol [19.707]	37	1804.14802817466	0.814870318522942	1.99601648692041	0.576200328015214	7.49784314154317	0.000451243421049155	0.00110531613135829	0.000319077282989674	1803.6504864703	0.616941759292775	0.92219980759689	0.358444971716801	1804.14802817466	0.814870318522942	1.99601648692041	0.576200328015214	6
[892] myo-inositol [19.707]	38	1803.56120147808	0.00279896027401363	0.00685602448165398	0.00197916379002679	7.49751843459735	1.5519086038499e-06	3.80138420686729e-06	1.09736509756401e-06					1803.56120147808	0.00279896027401363	0.00685602448165398	0.00197916379002679	6
[892] myo-inositol [19.707]	39	1803.4048338266	0.493775160416767	1.20949719068199	0.349151764312171	7.49743150657454	0.000273785150179429	0.000670633917090864	0.000193595336280052					1803.4048338266	0.493775160416767	1.20949719068199	0.349151764312171	6
[892] myo-inositol [19.707]	40	1801.81736144744	0.826397143269296	2.02425132590346	0.58435102395891	7.49655044798139	0.000459045820688344	0.00112442802924359	0.000324594412684072	1802.2708961016	0.661552648406675	0.97782575007832	0.36944593805518	1801.81736144744	0.826397143269296	2.02425132590346	0.58435102395891	6
[892] myo-inositol [19.707]	41	1803.20973860726	0.219559991233213	0.537809946451319	0.155252358678264	7.49732349952012	0.000121780976963782	0.000298301253938899	8.61121546306132e-05	1803.30847450599	0.215262074179515	0.299883769124092	0.105025904464886	1803.20973860726	0.219559991233213	0.537809946451319	0.155252358678264	6
[892] myo-inositol [19.707]	42	1803.19027340559	0.219153570567756	0.536814423200029	0.154964975869705	7.49731270487353	0.000121556968594329	0.000297752547735627	8.59537567935305e-05	1803.28888032546	0.214053457161689	0.298570532685429	0.104654211870538	1803.19027340559	0.219153570567756	0.536814423200029	0.154964975869705	6
[892] myo-inositol [19.707]	43	1803.4460496717	0.30965039182342	0.758485458620259	0.218955891855412	7.49745449724551	0.000171656595699708	0.000420471070447513	0.000121379542854661	1803.3180856941	0.287541799330201	0.40899974650115	0.143870706642538	1803.4460496717	0.30965039182342	0.758485458620259	0.218955891855412	6
[892] myo-inositol [19.707]	44	1804.5836343073	0.374331849141039	0.916922024868036	0.264692588941729	7.49808504158073	0.000207405681338283	0.000508038089033081	0.000146657963730916					1804.5836343073	0.374331849141039	0.916922024868036	0.264692588941729	6
[892] myo-inositol [19.707]	45	1803.0830038336	0.354258072088799	0.867751513879658	0.250498285064063	7.49725314282476	0.000196507548752496	0.000481343225048704	0.000138951820277236	1803.16921022429	0.345612789377617	0.488408151613721	0.168595733746953	1803.0830038336	0.354258072088799	0.867751513879658	0.250498285064063	6
[892] myo-inositol [19.707]	46	1802.17944156758	0.88940016533436	2.17857658221618	0.628900888096362	7.49675128073196	0.000493983553206436	0.00121000764668275	0.000349299120266897	1802.68283097944	0.719501030998645	1.05719260354983	0.397668245761637	1802.17944156758	0.88940016533436	2.17857658221618	0.628900888096362	6
[892] myo-inositol [19.707]	47	1803.21699905584	0.144785891794346	0.354651556849966	0.102379085907924	7.49732755106064	8.02930995782569e-05	0.000196677123833209	5.67757951942722e-05					1803.21699905584	0.144785891794346	0.354651556849966	0.102379085907924	6
[892] myo-inositol [19.707]	48	1802.97498122254	1.14922374499658	2.81501177553199	0.81262390318768	7.49719212921945	0.000636949848398649	0.00156020212031979	0.000450391557078428	1802.61975778478	1.04818015820624	1.51151508955852	0.539384771744656	1802.97498122254	1.14922374499658	2.81501177553199	0.81262390318768	6
[892] myo-inositol [19.707]	49	1803.56723041454	0.286101227383786	0.700802021874262	0.20230411798887	7.49752170192295	0.000158600002823517	0.000388489080121587	0.000112147137492714	1803.4741708921	0.264913786936291	0.379841568120091	0.134017687456649	1803.56723041454	0.286101227383786	0.700802021874262	0.20230411798887	6
[892] myo-inositol [19.707]	50	1803.55792257891	0.555255492003166	1.36009263228578	0.392624923686512	7.4975163324273	0.000307717337176471	0.000753750461090318	0.00021758901580615	1803.31003226323	0.480782767415279	0.698884780532763	0.25446764452646	1803.55792257891	0.555255492003166	1.36009263228578	0.392624923686512	6
[892] myo-inositol [19.707]	51	1805.09340814076	0.944942131558854	2.31462605877709	0.668174989054136	7.49836679798498	0.000523004597196359	0.00128109439626093	0.000369820097269284	1804.59744269327	0.815463685692861	1.17740236013909	0.431053683223071	1805.09340814076	0.944942131558854	2.31462605877709	0.668174989054136	6
[892] myo-inositol [19.707]	52	1803.32710852732	0.136376924334263	0.334053877309094	0.0964330479941219	7.49738861417418	7.56301254604224e-05	0.000185255216560709	5.3478574575054e-05	1803.3770947468	0.150318214577196	0.202812351496303	0.0685041543456543	1803.32710852732	0.136376924334263	0.334053877309094	0.0964330479941219	6
[892] myo-inositol [19.707]	53	1802.95755343305	0.303931792244565	0.744477807608769	0.214912231314313	7.49718359545797	0.000168614843304857	0.000413020329156239	0.000119228699109571	1803.08177531174	0.282524918484642	0.401874646759454	0.141307640205141	1802.95755343305	0.303931792244565	0.744477807608769	0.214912231314313	6
[892] myo-inositol [19.707]	54	1802.8497206043	0.29089093561571	0.712534363059283	0.205690953159568	7.49712379197114	0.000161380415654244	0.000395299672831156	0.00011411318625982	1802.93731126528	0.273078373275965	0.39025068833657	0.136880822144895	1802.8497206043	0.29089093561571	0.712534363059283	0.205690953159568	6
[892] myo-inositol [19.707]	55	1803.217216186	0.365024034757812	0.89412262900859	0.258110970273323	7.49732756784016	0.000202480205596569	0.000495973186725425	0.00014317512643338	1803.35035651382	0.339839018745044	0.484999245200035	0.171822839597734	1803.217216186	0.365024034757812	0.89412262900859	0.258110970273323	6
[892] myo-inositol [19.707]	56	1803.08635898413	0.322160774228302	0.789129511999312	0.227802068089141	7.49725502362959	0.000178728132706907	0.00043779272781236	0.000126379874625863	1803.25745434025	0.279951045569967	0.40294928050466	0.147391897774889	1803.08635898413	0.322160774228302	0.789129511999312	0.227802068089141	6
[892] myo-inositol [19.707]	57	1804.16341279662	0.563140645488123	1.37940723486745	0.398200569186421	7.49785198804186	0.000311962217643342	0.00076414825225326	0.000220590599569601					1804.16341279662	0.563140645488123	1.37940723486745	0.398200569186421	6
[892] myo-inositol [19.707]	58	1804.82446233856	0.6366873201819	1.55955906014567	0.450205921596112	7.49821824185106	0.000352816085753263	0.000864219383141527	0.000249478646747827	1804.88912444255	0.642186379539381	0.900996666023344	0.306765918554009	1804.82446233856	0.6366873201819	1.55955906014567	0.450205921596112	6
[892] myo-inositol [19.707]	59	1803.67486162902	0.106798692787809	0.261602302526389	0.0755180798921184	7.49758144194961	5.92040753579665e-05	0.000145019775320301	4.18636031594975e-05					1803.67486162902	0.106798692787809	0.261602302526389	0.0755180798921184	6
[892] myo-inositol [19.707]	60	1804.40172938072	0.740898703505331	1.81482377467766	0.523894497420941	7.49798385849482	0.000410405736569358	0.00100528464210602	0.000290200679366053	1804.11133990189	0.744902071815055	1.0339545531155	0.357004923578702	1804.40172938072	0.740898703505331	1.81482377467766	0.523894497420941	6
[892] myo-inositol [19.707]	61	1803.21036282674	0.220079753576236	0.539083098979239	0.155619886155621	7.49732384548055	0.000122069162227496	0.000299007160786388	8.63159323848235e-05	1803.3090045176	0.216187041164703	0.301018861132986	0.105353321896254	1803.21036282674	0.220079753576236	0.539083098979239	0.155619886155621	6
[892] myo-inositol [19.707]	62	1803.21278797307	0.147426019840786	0.361118523419355	0.104245938352762	7.49732521502934	8.17574102982386e-05	0.000200263937922051	5.78112192341354e-05					1803.21278797307	0.147426019840786	0.361118523419355	0.104245938352762	6
[892] myo-inositol [19.707]	63	1804.11630001781	0.770240232839043	1.88669554981816	0.544642091783193	7.49782561981087	0.000426801764834129	0.00104544654516296	0.000301794422136599	1803.95056666033	0.733802085199713	1.04718251531654	0.367688167088752	1804.11630001781	0.770240232839043	1.88669554981816	0.544642091783193	6
[892] myo-inositol [19.707]	64	1802.83905020147	0.370474589255332	0.907473706342746	0.261965094319746	7.49711782475736	0.000205496964354231	0.00050336270635877	0.000145308297008127	1802.84449217096	0.387990969420648	0.538594954254131	0.180752458598178	1802.83905020147	0.370474589255332	0.907473706342746	0.261965094319746	6
[892] myo-inositol [19.707]	65	1803.53906590777	0.386132907612606	0.945828596548123	0.273037197412152	7.49750602382565	0.00021401968387534	0.000524239020406344	0.000151334769775654	1803.35081967868	0.335191114905618	0.484845164949251	0.175938518781196	1803.53906590777	0.386132907612606	0.945828596548123	0.273037197412152	6
[892] myo-inositol [19.707]	66	1803.65036408961	0.489167220905071	1.19821009011272	0.345893459036154	7.49756764984203	0.000271073608574666	0.000663992023742865	0.000191677986823854	1803.38781827911	0.404252812178069	0.591698033486059	0.219847056184872	1803.65036408961	0.489167220905071	1.19821009011272	0.345893459036154	6
[892] myo-inositol [19.707]	67	1803.44403961942	0.104285857663294	0.255447138663586	0.0737412371355706	7.49745346106237	5.7833263480552e-05	0.000141661985687289	4.08942927852466e-05					1803.44403961942	0.104285857663294	0.255447138663586	0.0737412371355706	6
[892] myo-inositol [19.707]	68	1803.19256720151	0.140895593796061	0.345122311806797	0.0996282298125002	7.49731400295654	7.81365524314584e-05	0.000191394683717297	5.52508860828225e-05					1803.19256720151	0.140895593796061	0.345122311806797	0.0996282298125002	6
[892] myo-inositol [19.707]	69	1803.68185362974	0.913099299742289	2.23662736886124	0.64565870674446	7.49758456115988	0.000505741292839858	0.00123880810931314	0.000357613097693115	1803.15835171616	0.72466743369231	1.07099141719784	0.406459062372602	1803.68185362974	0.913099299742289	2.23662736886124	0.64565870674446	6
[892] myo-inositol [19.707]	70	1803.20663211212	0.226458537365347	0.554707864442099	0.160130367428624	7.49732177391971	0.0001256088604625	0.000307677615305578	8.88188770101488e-05	1803.31028614007	0.219525611214213	0.306761775989034	0.107844686784734	1803.20663211212	0.226458537365347	0.554707864442099	0.160130367428624	6
[892] myo-inositol [19.707]	71	1803.32751212569	0.137507953576133	0.336824321835843	0.0972328064407685	7.49738883769599	7.62573849890858e-05	0.000186791682342233	5.39221140413358e-05	1803.37794255621	0.151553685959989	0.204483160167121	0.0690725940072428	1803.32751212569	0.137507953576133	0.336824321835843	0.0972328064407685	6
[892] myo-inositol [19.707]	72	1803.92182992312	0.465031380054674	1.13908959551623	0.328826842301199	7.4977181688197	0.000257760163266178	0.00063138087601862	0.000182263959365266	1803.85383547847	0.527775990728989	0.71031045838896	0.229486060335158	1803.92182992312	0.465031380054674	1.13908959551623	0.328826842301199	6
[892] myo-inositol [19.707]	73	1802.3818226552	0.632821900714867	1.55009075480962	0.447472657278843	7.49686393398742	0.000351232309921602	0.000860339940487007	0.00024835874811738	1802.56092127007	0.602549209790873	0.857374645155991	0.299094764856149	1802.3818226552	0.632821900714867	1.55009075480962	0.447472657278843	6
[892] myo-inositol [19.707]	74	1803.92639244659	0.729638828441597	1.78724282620403	0.515932563408061	7.49772040712096	0.000404139827472204	0.000989936362043327	0.000285770012553157	1803.48839921643	0.562527714877592	0.836725217618675	0.32209559926307	1803.92639244659	0.729638828441597	1.78724282620403	0.515932563408061	6
[892] myo-inositol [19.707]	75	1803.5689030185	0.532590307127083	1.30457449441353	0.376598217763787	7.49752244338488	0.000295122802128797	0.000722900276675917	0.000208683334668048					1803.5689030185	0.532590307127083	1.30457449441353	0.376598217763787	6
[892] myo-inositol [19.707]	76	1802.9794464826	0.200522959961049	0.491178933617111	0.141791144772056	7.49719578640723	0.000111221314763132	0.000272435469691152	7.86453458814944e-05	1802.98759541985	0.207643924483318	0.289352937578115	0.0976589931276553	1802.9794464826	0.200522959961049	0.491178933617111	0.141791144772056	6
[892] myo-inositol [19.707]	77	1803.20931004614	0.223011170071541	0.546263573616314	0.157692710637933	7.49732326044476	0.000123695355940112	0.000302990505605218	8.74658249865368e-05	1803.30914724635	0.219499729441838	0.305444135616363	0.106847334393216	1803.20931004614	0.223011170071541	0.546263573616314	0.157692710637933	6
[892] myo-inositol [19.707]	78	1802.52379837511	0.815543585566403	1.99766564763752	0.576676399707195	7.49694245714802	0.000452879309621344	0.00110932322363621	0.000320234030892335	1803.03773311706	0.609857163825996	0.912757560684085	0.357414735737752	1802.52379837511	0.815543585566403	1.99766564763752	0.576676399707195	6
[892] myo-inositol [19.707]	79	1802.06382523361	0.782585530725266	1.91693523036207	0.553371535634309	7.49668729035139	0.000434572383522641	0.00106448059593555	0.00030728907930526	1802.43473705441	0.705411324306729	1.0088080036962	0.362292944215543	1802.06382523361	0.782585530725266	1.91693523036207	0.553371535634309	6
[892] myo-inositol [19.707]	80	1805.10338172582	1.00230216851819	2.45512888095464	0.708734660157192	7.49837221994229	0.000555006728491682	0.00135948328861602	0.000392449021320629	1804.75384039486	1.10501795958701	1.49258312227262	0.502823846337477	1805.10338172582	1.00230216851819	2.45512888095464	0.708734660157192	6
[892] myo-inositol [19.707]	81	1803.12073364234	1.45258482407099	3.55809162708441	1.02713257934927	7.49727223873065	0.000804950322274928	0.00197171755786245	0.000569185831398898	1802.74672793702	1.39604490680648	1.98344893071425	0.688742332884299	1803.12073364234	1.45258482407099	3.55809162708441	1.02713257934927	6
[892] myo-inositol [19.707]	82	1803.79792509025	0.660535326567562	1.61797450717318	0.467069008629194	7.49764927742879	0.000365996468367173	0.000896504595160259	0.000258798584672756	1803.51971011967	0.601783031957582	0.86141447267249	0.306913410959524	1803.79792509025	0.660535326567562	1.61797450717318	0.467069008629194	6
[892] myo-inositol [19.707]	83	1803.33089334279	0.135840981532559	0.332741090913602	0.096054079204709	7.49739071310252	7.53327104228843e-05	0.00018452670147691	5.3268270385184e-05	1803.38042777139	0.149724854103474	0.202040753840312	0.068221204261645	1803.33089334279	0.135840981532559	0.332741090913602	0.096054079204709	6
[892] myo-inositol [19.707]	84	1803.42054731419	0.506457531342148	1.24056252817788	0.358119554795031	7.49744020800023	0.000280880291325358	0.000688013392551415	0.000198612358697814	1803.53966850415	0.554255767579385	0.754475065461953	0.250347480035636	1803.42054731419	0.506457531342148	1.24056252817788	0.358119554795031	6
